Dec. 18, 2021   17:51:44
Cyclic Voltammetry
File: c:\gtl 2\cp\rib,pn\vb2\surface area\ferric characterization\zno-cpe-50.txt
Data Source:  Experiment
Instrument Model:  CHI760D
Data Proc:  Smoothing
Header: 
Note: 

Init E (V) = -0.2
High E (V) = 0.8
Low E (V) = -0.2
Init P/N = P
Scan Rate (V/s) = 0.05
Segment = 2
Sample Interval (V) = 0.001
Quiet Time (sec) = 2
Sensitivity (A/V) = 0.001

Segment 1:

Segment 2:

Potential/V, Current/A

-0.200, -7.151e-5
-0.199, -7.103e-5
-0.198, -7.057e-5
-0.197, -7.012e-5
-0.196, -6.971e-5
-0.195, -6.931e-5
-0.194, -6.891e-5
-0.193, -6.851e-5
-0.192, -6.812e-5
-0.191, -6.775e-5
-0.190, -6.740e-5
-0.189, -6.706e-5
-0.188, -6.671e-5
-0.187, -6.636e-5
-0.186, -6.602e-5
-0.185, -6.568e-5
-0.184, -6.537e-5
-0.183, -6.507e-5
-0.182, -6.477e-5
-0.181, -6.447e-5
-0.180, -6.415e-5
-0.179, -6.383e-5
-0.178, -6.351e-5
-0.177, -6.321e-5
-0.176, -6.293e-5
-0.175, -6.265e-5
-0.174, -6.238e-5
-0.173, -6.210e-5
-0.172, -6.182e-5
-0.171, -6.154e-5
-0.170, -6.126e-5
-0.169, -6.099e-5
-0.168, -6.072e-5
-0.167, -6.046e-5
-0.166, -6.021e-5
-0.165, -5.998e-5
-0.164, -5.973e-5
-0.163, -5.948e-5
-0.162, -5.922e-5
-0.161, -5.896e-5
-0.160, -5.871e-5
-0.159, -5.846e-5
-0.158, -5.821e-5
-0.157, -5.797e-5
-0.156, -5.774e-5
-0.155, -5.753e-5
-0.154, -5.731e-5
-0.153, -5.709e-5
-0.152, -5.686e-5
-0.151, -5.663e-5
-0.150, -5.640e-5
-0.149, -5.618e-5
-0.148, -5.596e-5
-0.147, -5.574e-5
-0.146, -5.552e-5
-0.145, -5.531e-5
-0.144, -5.511e-5
-0.143, -5.490e-5
-0.142, -5.468e-5
-0.141, -5.446e-5
-0.140, -5.425e-5
-0.139, -5.404e-5
-0.138, -5.384e-5
-0.137, -5.363e-5
-0.136, -5.342e-5
-0.135, -5.322e-5
-0.134, -5.301e-5
-0.133, -5.282e-5
-0.132, -5.263e-5
-0.131, -5.243e-5
-0.130, -5.223e-5
-0.129, -5.203e-5
-0.128, -5.184e-5
-0.127, -5.165e-5
-0.126, -5.147e-5
-0.125, -5.128e-5
-0.124, -5.109e-5
-0.123, -5.089e-5
-0.122, -5.069e-5
-0.121, -5.051e-5
-0.120, -5.034e-5
-0.119, -5.018e-5
-0.118, -5.000e-5
-0.117, -4.980e-5
-0.116, -4.960e-5
-0.115, -4.940e-5
-0.114, -4.921e-5
-0.113, -4.904e-5
-0.112, -4.886e-5
-0.111, -4.868e-5
-0.110, -4.850e-5
-0.109, -4.831e-5
-0.108, -4.814e-5
-0.107, -4.797e-5
-0.106, -4.781e-5
-0.105, -4.765e-5
-0.104, -4.748e-5
-0.103, -4.731e-5
-0.102, -4.714e-5
-0.101, -4.698e-5
-0.100, -4.682e-5
-0.099, -4.667e-5
-0.098, -4.650e-5
-0.097, -4.633e-5
-0.096, -4.615e-5
-0.095, -4.597e-5
-0.094, -4.580e-5
-0.093, -4.564e-5
-0.092, -4.549e-5
-0.091, -4.533e-5
-0.090, -4.518e-5
-0.089, -4.501e-5
-0.088, -4.484e-5
-0.087, -4.466e-5
-0.086, -4.449e-5
-0.085, -4.433e-5
-0.084, -4.417e-5
-0.083, -4.402e-5
-0.082, -4.386e-5
-0.081, -4.369e-5
-0.080, -4.353e-5
-0.079, -4.338e-5
-0.078, -4.323e-5
-0.077, -4.308e-5
-0.076, -4.294e-5
-0.075, -4.279e-5
-0.074, -4.263e-5
-0.073, -4.247e-5
-0.072, -4.231e-5
-0.071, -4.215e-5
-0.070, -4.200e-5
-0.069, -4.185e-5
-0.068, -4.171e-5
-0.067, -4.156e-5
-0.066, -4.141e-5
-0.065, -4.125e-5
-0.064, -4.109e-5
-0.063, -4.094e-5
-0.062, -4.079e-5
-0.061, -4.066e-5
-0.060, -4.053e-5
-0.059, -4.040e-5
-0.058, -4.026e-5
-0.057, -4.011e-5
-0.056, -3.995e-5
-0.055, -3.978e-5
-0.054, -3.962e-5
-0.053, -3.947e-5
-0.052, -3.933e-5
-0.051, -3.919e-5
-0.050, -3.905e-5
-0.049, -3.890e-5
-0.048, -3.876e-5
-0.047, -3.862e-5
-0.046, -3.849e-5
-0.045, -3.836e-5
-0.044, -3.824e-5
-0.043, -3.812e-5
-0.042, -3.799e-5
-0.041, -3.787e-5
-0.040, -3.773e-5
-0.039, -3.758e-5
-0.038, -3.744e-5
-0.037, -3.729e-5
-0.036, -3.714e-5
-0.035, -3.700e-5
-0.034, -3.687e-5
-0.033, -3.673e-5
-0.032, -3.659e-5
-0.031, -3.645e-5
-0.030, -3.630e-5
-0.029, -3.616e-5
-0.028, -3.602e-5
-0.027, -3.589e-5
-0.026, -3.577e-5
-0.025, -3.565e-5
-0.024, -3.553e-5
-0.023, -3.540e-5
-0.022, -3.526e-5
-0.021, -3.510e-5
-0.020, -3.494e-5
-0.019, -3.479e-5
-0.018, -3.464e-5
-0.017, -3.451e-5
-0.016, -3.437e-5
-0.015, -3.424e-5
-0.014, -3.410e-5
-0.013, -3.396e-5
-0.012, -3.382e-5
-0.011, -3.368e-5
-0.010, -3.355e-5
-0.009, -3.342e-5
-0.008, -3.330e-5
-0.007, -3.317e-5
-0.006, -3.304e-5
-0.005, -3.290e-5
-0.004, -3.275e-5
-0.003, -3.260e-5
-0.002, -3.245e-5
-0.001, -3.230e-5
0.000, -3.216e-5
0.001, -3.203e-5
0.002, -3.190e-5
0.003, -3.176e-5
0.004, -3.162e-5
0.005, -3.147e-5
0.006, -3.133e-5
0.007, -3.120e-5
0.008, -3.107e-5
0.009, -3.095e-5
0.010, -3.083e-5
0.011, -3.071e-5
0.012, -3.058e-5
0.013, -3.044e-5
0.014, -3.029e-5
0.015, -3.013e-5
0.016, -2.997e-5
0.017, -2.982e-5
0.018, -2.968e-5
0.019, -2.955e-5
0.020, -2.941e-5
0.021, -2.927e-5
0.022, -2.912e-5
0.023, -2.897e-5
0.024, -2.882e-5
0.025, -2.869e-5
0.026, -2.856e-5
0.027, -2.843e-5
0.028, -2.831e-5
0.029, -2.817e-5
0.030, -2.803e-5
0.031, -2.787e-5
0.032, -2.771e-5
0.033, -2.756e-5
0.034, -2.741e-5
0.035, -2.726e-5
0.036, -2.712e-5
0.037, -2.698e-5
0.038, -2.683e-5
0.039, -2.668e-5
0.040, -2.653e-5
0.041, -2.638e-5
0.042, -2.624e-5
0.043, -2.611e-5
0.044, -2.598e-5
0.045, -2.586e-5
0.046, -2.573e-5
0.047, -2.559e-5
0.048, -2.542e-5
0.049, -2.525e-5
0.050, -2.508e-5
0.051, -2.492e-5
0.052, -2.476e-5
0.053, -2.462e-5
0.054, -2.446e-5
0.055, -2.431e-5
0.056, -2.415e-5
0.057, -2.399e-5
0.058, -2.384e-5
0.059, -2.369e-5
0.060, -2.355e-5
0.061, -2.341e-5
0.062, -2.326e-5
0.063, -2.309e-5
0.064, -2.292e-5
0.065, -2.274e-5
0.066, -2.257e-5
0.067, -2.241e-5
0.068, -2.225e-5
0.069, -2.209e-5
0.070, -2.192e-5
0.071, -2.175e-5
0.072, -2.158e-5
0.073, -2.141e-5
0.074, -2.126e-5
0.075, -2.112e-5
0.076, -2.098e-5
0.077, -2.082e-5
0.078, -2.065e-5
0.079, -2.046e-5
0.080, -2.027e-5
0.081, -2.008e-5
0.082, -1.990e-5
0.083, -1.972e-5
0.084, -1.955e-5
0.085, -1.936e-5
0.086, -1.918e-5
0.087, -1.899e-5
0.088, -1.881e-5
0.089, -1.865e-5
0.090, -1.848e-5
0.091, -1.830e-5
0.092, -1.812e-5
0.093, -1.793e-5
0.094, -1.774e-5
0.095, -1.755e-5
0.096, -1.736e-5
0.097, -1.716e-5
0.098, -1.697e-5
0.099, -1.676e-5
0.100, -1.656e-5
0.101, -1.637e-5
0.102, -1.618e-5
0.103, -1.599e-5
0.104, -1.579e-5
0.105, -1.557e-5
0.106, -1.535e-5
0.107, -1.513e-5
0.108, -1.492e-5
0.109, -1.470e-5
0.110, -1.449e-5
0.111, -1.427e-5
0.112, -1.405e-5
0.113, -1.383e-5
0.114, -1.362e-5
0.115, -1.340e-5
0.116, -1.317e-5
0.117, -1.294e-5
0.118, -1.271e-5
0.119, -1.248e-5
0.120, -1.224e-5
0.121, -1.201e-5
0.122, -1.177e-5
0.123, -1.153e-5
0.124, -1.130e-5
0.125, -1.106e-5
0.126, -1.080e-5
0.127, -1.054e-5
0.128, -1.028e-5
0.129, -1.002e-5
0.130, -9.760e-6
0.131, -9.501e-6
0.132, -9.240e-6
0.133, -8.976e-6
0.134, -8.709e-6
0.135, -8.435e-6
0.136, -8.157e-6
0.137, -7.880e-6
0.138, -7.602e-6
0.139, -7.322e-6
0.140, -7.042e-6
0.141, -6.760e-6
0.142, -6.476e-6
0.143, -6.188e-6
0.144, -5.892e-6
0.145, -5.587e-6
0.146, -5.279e-6
0.147, -4.971e-6
0.148, -4.664e-6
0.149, -4.356e-6
0.150, -4.045e-6
0.151, -3.730e-6
0.152, -3.411e-6
0.153, -3.087e-6
0.154, -2.760e-6
0.155, -2.431e-6
0.156, -2.101e-6
0.157, -1.771e-6
0.158, -1.438e-6
0.159, -1.096e-6
0.160, -7.418e-7
0.161, -3.810e-7
0.162, -2.140e-8
0.163, 3.324e-7
0.164, 6.789e-7
0.165, 1.025e-6
0.166, 1.379e-6
0.167, 1.742e-6
0.168, 2.108e-6
0.169, 2.470e-6
0.170, 2.829e-6
0.171, 3.187e-6
0.172, 3.556e-6
0.173, 3.948e-6
0.174, 4.351e-6
0.175, 4.754e-6
0.176, 5.154e-6
0.177, 5.549e-6
0.178, 5.948e-6
0.179, 6.360e-6
0.180, 6.774e-6
0.181, 7.183e-6
0.182, 7.589e-6
0.183, 7.998e-6
0.184, 8.418e-6
0.185, 8.859e-6
0.186, 9.307e-6
0.187, 9.749e-6
0.188, 1.019e-5
0.189, 1.062e-5
0.190, 1.106e-5
0.191, 1.152e-5
0.192, 1.197e-5
0.193, 1.241e-5
0.194, 1.286e-5
0.195, 1.331e-5
0.196, 1.379e-5
0.197, 1.427e-5
0.198, 1.476e-5
0.199, 1.523e-5
0.200, 1.571e-5
0.201, 1.619e-5
0.202, 1.667e-5
0.203, 1.714e-5
0.204, 1.762e-5
0.205, 1.812e-5
0.206, 1.864e-5
0.207, 1.916e-5
0.208, 1.968e-5
0.209, 2.018e-5
0.210, 2.068e-5
0.211, 2.118e-5
0.212, 2.170e-5
0.213, 2.221e-5
0.214, 2.273e-5
0.215, 2.326e-5
0.216, 2.379e-5
0.217, 2.433e-5
0.218, 2.487e-5
0.219, 2.542e-5
0.220, 2.596e-5
0.221, 2.650e-5
0.222, 2.704e-5
0.223, 2.758e-5
0.224, 2.812e-5
0.225, 2.867e-5
0.226, 2.922e-5
0.227, 2.979e-5
0.228, 3.036e-5
0.229, 3.093e-5
0.230, 3.150e-5
0.231, 3.207e-5
0.232, 3.264e-5
0.233, 3.321e-5
0.234, 3.379e-5
0.235, 3.437e-5
0.236, 3.496e-5
0.237, 3.555e-5
0.238, 3.613e-5
0.239, 3.671e-5
0.240, 3.729e-5
0.241, 3.787e-5
0.242, 3.846e-5
0.243, 3.905e-5
0.244, 3.964e-5
0.245, 4.023e-5
0.246, 4.082e-5
0.247, 4.142e-5
0.248, 4.202e-5
0.249, 4.263e-5
0.250, 4.325e-5
0.251, 4.386e-5
0.252, 4.448e-5
0.253, 4.509e-5
0.254, 4.571e-5
0.255, 4.632e-5
0.256, 4.693e-5
0.257, 4.753e-5
0.258, 4.814e-5
0.259, 4.875e-5
0.260, 4.937e-5
0.261, 4.999e-5
0.262, 5.061e-5
0.263, 5.123e-5
0.264, 5.185e-5
0.265, 5.247e-5
0.266, 5.309e-5
0.267, 5.371e-5
0.268, 5.434e-5
0.269, 5.497e-5
0.270, 5.559e-5
0.271, 5.620e-5
0.272, 5.680e-5
0.273, 5.741e-5
0.274, 5.802e-5
0.275, 5.863e-5
0.276, 5.925e-5
0.277, 5.987e-5
0.278, 6.048e-5
0.279, 6.109e-5
0.280, 6.170e-5
0.281, 6.231e-5
0.282, 6.293e-5
0.283, 6.355e-5
0.284, 6.417e-5
0.285, 6.478e-5
0.286, 6.539e-5
0.287, 6.600e-5
0.288, 6.660e-5
0.289, 6.721e-5
0.290, 6.781e-5
0.291, 6.842e-5
0.292, 6.902e-5
0.293, 6.962e-5
0.294, 7.022e-5
0.295, 7.081e-5
0.296, 7.140e-5
0.297, 7.198e-5
0.298, 7.257e-5
0.299, 7.316e-5
0.300, 7.375e-5
0.301, 7.433e-5
0.302, 7.490e-5
0.303, 7.547e-5
0.304, 7.603e-5
0.305, 7.660e-5
0.306, 7.716e-5
0.307, 7.772e-5
0.308, 7.827e-5
0.309, 7.880e-5
0.310, 7.931e-5
0.311, 7.983e-5
0.312, 8.035e-5
0.313, 8.088e-5
0.314, 8.142e-5
0.315, 8.196e-5
0.316, 8.249e-5
0.317, 8.301e-5
0.318, 8.353e-5
0.319, 8.404e-5
0.320, 8.455e-5
0.321, 8.504e-5
0.322, 8.554e-5
0.323, 8.602e-5
0.324, 8.651e-5
0.325, 8.700e-5
0.326, 8.749e-5
0.327, 8.797e-5
0.328, 8.844e-5
0.329, 8.891e-5
0.330, 8.936e-5
0.331, 8.982e-5
0.332, 9.026e-5
0.333, 9.069e-5
0.334, 9.112e-5
0.335, 9.155e-5
0.336, 9.199e-5
0.337, 9.241e-5
0.338, 9.283e-5
0.339, 9.324e-5
0.340, 9.364e-5
0.341, 9.404e-5
0.342, 9.444e-5
0.343, 9.483e-5
0.344, 9.520e-5
0.345, 9.557e-5
0.346, 9.593e-5
0.347, 9.629e-5
0.348, 9.665e-5
0.349, 9.702e-5
0.350, 9.737e-5
0.351, 9.771e-5
0.352, 9.803e-5
0.353, 9.835e-5
0.354, 9.866e-5
0.355, 9.897e-5
0.356, 9.927e-5
0.357, 9.957e-5
0.358, 9.986e-5
0.359, 1.001e-4
0.360, 1.004e-4
0.361, 1.007e-4
0.362, 1.009e-4
0.363, 1.012e-4
0.364, 1.015e-4
0.365, 1.017e-4
0.366, 1.020e-4
0.367, 1.022e-4
0.368, 1.025e-4
0.369, 1.027e-4
0.370, 1.029e-4
0.371, 1.031e-4
0.372, 1.033e-4
0.373, 1.035e-4
0.374, 1.037e-4
0.375, 1.039e-4
0.376, 1.041e-4
0.377, 1.043e-4
0.378, 1.044e-4
0.379, 1.046e-4
0.380, 1.048e-4
0.381, 1.049e-4
0.382, 1.050e-4
0.383, 1.052e-4
0.384, 1.053e-4
0.385, 1.054e-4
0.386, 1.055e-4
0.387, 1.056e-4
0.388, 1.057e-4
0.389, 1.058e-4
0.390, 1.059e-4
0.391, 1.060e-4
0.392, 1.061e-4
0.393, 1.062e-4
0.394, 1.063e-4
0.395, 1.064e-4
0.396, 1.064e-4
0.397, 1.065e-4
0.398, 1.066e-4
0.399, 1.066e-4
0.400, 1.067e-4
0.401, 1.067e-4
0.402, 1.067e-4
0.403, 1.067e-4
0.404, 1.068e-4
0.405, 1.068e-4
0.406, 1.068e-4
0.407, 1.068e-4
0.408, 1.068e-4
0.409, 1.068e-4
0.410, 1.068e-4
0.411, 1.068e-4
0.412, 1.068e-4
0.413, 1.068e-4
0.414, 1.067e-4
0.415, 1.067e-4
0.416, 1.067e-4
0.417, 1.067e-4
0.418, 1.066e-4
0.419, 1.066e-4
0.420, 1.065e-4
0.421, 1.065e-4
0.422, 1.065e-4
0.423, 1.064e-4
0.424, 1.063e-4
0.425, 1.063e-4
0.426, 1.062e-4
0.427, 1.061e-4
0.428, 1.060e-4
0.429, 1.060e-4
0.430, 1.059e-4
0.431, 1.058e-4
0.432, 1.057e-4
0.433, 1.057e-4
0.434, 1.056e-4
0.435, 1.055e-4
0.436, 1.054e-4
0.437, 1.053e-4
0.438, 1.052e-4
0.439, 1.051e-4
0.440, 1.050e-4
0.441, 1.049e-4
0.442, 1.048e-4
0.443, 1.046e-4
0.444, 1.045e-4
0.445, 1.044e-4
0.446, 1.043e-4
0.447, 1.041e-4
0.448, 1.040e-4
0.449, 1.038e-4
0.450, 1.037e-4
0.451, 1.035e-4
0.452, 1.034e-4
0.453, 1.033e-4
0.454, 1.031e-4
0.455, 1.030e-4
0.456, 1.028e-4
0.457, 1.027e-4
0.458, 1.025e-4
0.459, 1.023e-4
0.460, 1.022e-4
0.461, 1.020e-4
0.462, 1.018e-4
0.463, 1.016e-4
0.464, 1.014e-4
0.465, 1.012e-4
0.466, 1.011e-4
0.467, 1.009e-4
0.468, 1.007e-4
0.469, 1.005e-4
0.470, 1.003e-4
0.471, 1.001e-4
0.472, 9.995e-5
0.473, 9.975e-5
0.474, 9.955e-5
0.475, 9.934e-5
0.476, 9.913e-5
0.477, 9.892e-5
0.478, 9.871e-5
0.479, 9.851e-5
0.480, 9.831e-5
0.481, 9.809e-5
0.482, 9.787e-5
0.483, 9.765e-5
0.484, 9.742e-5
0.485, 9.720e-5
0.486, 9.696e-5
0.487, 9.671e-5
0.488, 9.646e-5
0.489, 9.622e-5
0.490, 9.598e-5
0.491, 9.576e-5
0.492, 9.552e-5
0.493, 9.528e-5
0.494, 9.504e-5
0.495, 9.480e-5
0.496, 9.456e-5
0.497, 9.431e-5
0.498, 9.405e-5
0.499, 9.379e-5
0.500, 9.354e-5
0.501, 9.329e-5
0.502, 9.304e-5
0.503, 9.279e-5
0.504, 9.254e-5
0.505, 9.229e-5
0.506, 9.203e-5
0.507, 9.176e-5
0.508, 9.149e-5
0.509, 9.123e-5
0.510, 9.098e-5
0.511, 9.074e-5
0.512, 9.048e-5
0.513, 9.022e-5
0.514, 8.996e-5
0.515, 8.970e-5
0.516, 8.944e-5
0.517, 8.918e-5
0.518, 8.892e-5
0.519, 8.867e-5
0.520, 8.842e-5
0.521, 8.817e-5
0.522, 8.792e-5
0.523, 8.766e-5
0.524, 8.740e-5
0.525, 8.713e-5
0.526, 8.686e-5
0.527, 8.660e-5
0.528, 8.635e-5
0.529, 8.610e-5
0.530, 8.587e-5
0.531, 8.563e-5
0.532, 8.539e-5
0.533, 8.517e-5
0.534, 8.495e-5
0.535, 8.474e-5
0.536, 8.452e-5
0.537, 8.430e-5
0.538, 8.407e-5
0.539, 8.384e-5
0.540, 8.361e-5
0.541, 8.338e-5
0.542, 8.314e-5
0.543, 8.291e-5
0.544, 8.268e-5
0.545, 8.245e-5
0.546, 8.221e-5
0.547, 8.197e-5
0.548, 8.173e-5
0.549, 8.149e-5
0.550, 8.125e-5
0.551, 8.100e-5
0.552, 8.074e-5
0.553, 8.049e-5
0.554, 8.026e-5
0.555, 8.006e-5
0.556, 7.986e-5
0.557, 7.966e-5
0.558, 7.947e-5
0.559, 7.927e-5
0.560, 7.908e-5
0.561, 7.889e-5
0.562, 7.869e-5
0.563, 7.848e-5
0.564, 7.826e-5
0.565, 7.803e-5
0.566, 7.782e-5
0.567, 7.761e-5
0.568, 7.740e-5
0.569, 7.719e-5
0.570, 7.698e-5
0.571, 7.678e-5
0.572, 7.660e-5
0.573, 7.642e-5
0.574, 7.625e-5
0.575, 7.607e-5
0.576, 7.589e-5
0.577, 7.571e-5
0.578, 7.552e-5
0.579, 7.534e-5
0.580, 7.515e-5
0.581, 7.495e-5
0.582, 7.475e-5
0.583, 7.455e-5
0.584, 7.435e-5
0.585, 7.417e-5
0.586, 7.399e-5
0.587, 7.382e-5
0.588, 7.364e-5
0.589, 7.345e-5
0.590, 7.325e-5
0.591, 7.304e-5
0.592, 7.283e-5
0.593, 7.263e-5
0.594, 7.243e-5
0.595, 7.224e-5
0.596, 7.205e-5
0.597, 7.187e-5
0.598, 7.171e-5
0.599, 7.156e-5
0.600, 7.142e-5
0.601, 7.127e-5
0.602, 7.111e-5
0.603, 7.094e-5
0.604, 7.078e-5
0.605, 7.062e-5
0.606, 7.046e-5
0.607, 7.031e-5
0.608, 7.016e-5
0.609, 6.999e-5
0.610, 6.982e-5
0.611, 6.965e-5
0.612, 6.950e-5
0.613, 6.935e-5
0.614, 6.922e-5
0.615, 6.909e-5
0.616, 6.895e-5
0.617, 6.881e-5
0.618, 6.866e-5
0.619, 6.850e-5
0.620, 6.835e-5
0.621, 6.820e-5
0.622, 6.806e-5
0.623, 6.792e-5
0.624, 6.779e-5
0.625, 6.765e-5
0.626, 6.750e-5
0.627, 6.735e-5
0.628, 6.720e-5
0.629, 6.705e-5
0.630, 6.692e-5
0.631, 6.680e-5
0.632, 6.669e-5
0.633, 6.657e-5
0.634, 6.644e-5
0.635, 6.630e-5
0.636, 6.617e-5
0.637, 6.603e-5
0.638, 6.590e-5
0.639, 6.577e-5
0.640, 6.564e-5
0.641, 6.552e-5
0.642, 6.540e-5
0.643, 6.528e-5
0.644, 6.515e-5
0.645, 6.500e-5
0.646, 6.486e-5
0.647, 6.472e-5
0.648, 6.459e-5
0.649, 6.447e-5
0.650, 6.437e-5
0.651, 6.427e-5
0.652, 6.417e-5
0.653, 6.406e-5
0.654, 6.395e-5
0.655, 6.383e-5
0.656, 6.371e-5
0.657, 6.358e-5
0.658, 6.346e-5
0.659, 6.334e-5
0.660, 6.323e-5
0.661, 6.313e-5
0.662, 6.302e-5
0.663, 6.290e-5
0.664, 6.279e-5
0.665, 6.267e-5
0.666, 6.255e-5
0.667, 6.243e-5
0.668, 6.231e-5
0.669, 6.219e-5
0.670, 6.209e-5
0.671, 6.199e-5
0.672, 6.190e-5
0.673, 6.181e-5
0.674, 6.172e-5
0.675, 6.164e-5
0.676, 6.154e-5
0.677, 6.145e-5
0.678, 6.135e-5
0.679, 6.125e-5
0.680, 6.114e-5
0.681, 6.104e-5
0.682, 6.093e-5
0.683, 6.082e-5
0.684, 6.072e-5
0.685, 6.062e-5
0.686, 6.053e-5
0.687, 6.044e-5
0.688, 6.034e-5
0.689, 6.024e-5
0.690, 6.014e-5
0.691, 6.003e-5
0.692, 5.993e-5
0.693, 5.983e-5
0.694, 5.973e-5
0.695, 5.964e-5
0.696, 5.955e-5
0.697, 5.947e-5
0.698, 5.940e-5
0.699, 5.932e-5
0.700, 5.923e-5
0.701, 5.914e-5
0.702, 5.904e-5
0.703, 5.895e-5
0.704, 5.887e-5
0.705, 5.878e-5
0.706, 5.870e-5
0.707, 5.862e-5
0.708, 5.854e-5
0.709, 5.846e-5
0.710, 5.837e-5
0.711, 5.829e-5
0.712, 5.820e-5
0.713, 5.812e-5
0.714, 5.804e-5
0.715, 5.796e-5
0.716, 5.787e-5
0.717, 5.778e-5
0.718, 5.768e-5
0.719, 5.759e-5
0.720, 5.749e-5
0.721, 5.740e-5
0.722, 5.731e-5
0.723, 5.722e-5
0.724, 5.715e-5
0.725, 5.708e-5
0.726, 5.702e-5
0.727, 5.696e-5
0.728, 5.689e-5
0.729, 5.682e-5
0.730, 5.675e-5
0.731, 5.667e-5
0.732, 5.659e-5
0.733, 5.651e-5
0.734, 5.643e-5
0.735, 5.635e-5
0.736, 5.628e-5
0.737, 5.620e-5
0.738, 5.613e-5
0.739, 5.605e-5
0.740, 5.597e-5
0.741, 5.590e-5
0.742, 5.583e-5
0.743, 5.577e-5
0.744, 5.570e-5
0.745, 5.564e-5
0.746, 5.557e-5
0.747, 5.550e-5
0.748, 5.543e-5
0.749, 5.536e-5
0.750, 5.528e-5
0.751, 5.520e-5
0.752, 5.512e-5
0.753, 5.504e-5
0.754, 5.497e-5
0.755, 5.489e-5
0.756, 5.482e-5
0.757, 5.475e-5
0.758, 5.469e-5
0.759, 5.463e-5
0.760, 5.457e-5
0.761, 5.451e-5
0.762, 5.445e-5
0.763, 5.439e-5
0.764, 5.432e-5
0.765, 5.426e-5
0.766, 5.419e-5
0.767, 5.412e-5
0.768, 5.406e-5
0.769, 5.400e-5
0.770, 5.393e-5
0.771, 5.388e-5
0.772, 5.381e-5
0.773, 5.375e-5
0.774, 5.369e-5
0.775, 5.363e-5
0.776, 5.358e-5
0.777, 5.352e-5
0.778, 5.346e-5
0.779, 5.340e-5
0.780, 5.335e-5
0.781, 5.329e-5
0.782, 5.323e-5
0.783, 5.317e-5
0.784, 5.311e-5
0.785, 5.305e-5
0.786, 5.298e-5
0.787, 5.292e-5
0.788, 5.286e-5
0.789, 5.279e-5
0.790, 5.273e-5
0.791, 5.267e-5
0.792, 5.261e-5
0.793, 5.254e-5
0.794, 5.247e-5
0.795, 5.240e-5
0.796, 5.234e-5
0.797, 5.229e-5
0.798, 5.224e-5
0.799, 5.219e-5
0.800, 5.203e-5
0.799, 5.185e-5
0.798, 5.168e-5
0.797, 5.153e-5
0.796, 5.140e-5
0.795, 5.129e-5
0.794, 5.119e-5
0.793, 5.108e-5
0.792, 5.099e-5
0.791, 5.090e-5
0.790, 5.083e-5
0.789, 5.075e-5
0.788, 5.066e-5
0.787, 5.055e-5
0.786, 5.043e-5
0.785, 5.031e-5
0.784, 5.020e-5
0.783, 5.011e-5
0.782, 5.002e-5
0.781, 4.993e-5
0.780, 4.985e-5
0.779, 4.978e-5
0.778, 4.970e-5
0.777, 4.963e-5
0.776, 4.955e-5
0.775, 4.947e-5
0.774, 4.939e-5
0.773, 4.931e-5
0.772, 4.924e-5
0.771, 4.917e-5
0.770, 4.909e-5
0.769, 4.902e-5
0.768, 4.895e-5
0.767, 4.887e-5
0.766, 4.880e-5
0.765, 4.873e-5
0.764, 4.866e-5
0.763, 4.858e-5
0.762, 4.851e-5
0.761, 4.844e-5
0.760, 4.837e-5
0.759, 4.831e-5
0.758, 4.824e-5
0.757, 4.818e-5
0.756, 4.811e-5
0.755, 4.804e-5
0.754, 4.797e-5
0.753, 4.789e-5
0.752, 4.780e-5
0.751, 4.772e-5
0.750, 4.763e-5
0.749, 4.756e-5
0.748, 4.749e-5
0.747, 4.742e-5
0.746, 4.736e-5
0.745, 4.730e-5
0.744, 4.725e-5
0.743, 4.719e-5
0.742, 4.714e-5
0.741, 4.708e-5
0.740, 4.703e-5
0.739, 4.697e-5
0.738, 4.691e-5
0.737, 4.684e-5
0.736, 4.678e-5
0.735, 4.671e-5
0.734, 4.664e-5
0.733, 4.657e-5
0.732, 4.650e-5
0.731, 4.644e-5
0.730, 4.637e-5
0.729, 4.631e-5
0.728, 4.626e-5
0.727, 4.620e-5
0.726, 4.614e-5
0.725, 4.609e-5
0.724, 4.603e-5
0.723, 4.597e-5
0.722, 4.592e-5
0.721, 4.586e-5
0.720, 4.581e-5
0.719, 4.576e-5
0.718, 4.569e-5
0.717, 4.563e-5
0.716, 4.556e-5
0.715, 4.550e-5
0.714, 4.543e-5
0.713, 4.536e-5
0.712, 4.529e-5
0.711, 4.523e-5
0.710, 4.517e-5
0.709, 4.511e-5
0.708, 4.505e-5
0.707, 4.499e-5
0.706, 4.493e-5
0.705, 4.488e-5
0.704, 4.482e-5
0.703, 4.477e-5
0.702, 4.472e-5
0.701, 4.466e-5
0.700, 4.461e-5
0.699, 4.456e-5
0.698, 4.451e-5
0.697, 4.445e-5
0.696, 4.440e-5
0.695, 4.434e-5
0.694, 4.429e-5
0.693, 4.424e-5
0.692, 4.419e-5
0.691, 4.414e-5
0.690, 4.408e-5
0.689, 4.402e-5
0.688, 4.396e-5
0.687, 4.391e-5
0.686, 4.385e-5
0.685, 4.380e-5
0.684, 4.375e-5
0.683, 4.370e-5
0.682, 4.365e-5
0.681, 4.360e-5
0.680, 4.355e-5
0.679, 4.351e-5
0.678, 4.346e-5
0.677, 4.340e-5
0.676, 4.335e-5
0.675, 4.330e-5
0.674, 4.324e-5
0.673, 4.319e-5
0.672, 4.314e-5
0.671, 4.308e-5
0.670, 4.302e-5
0.669, 4.296e-5
0.668, 4.290e-5
0.667, 4.284e-5
0.666, 4.278e-5
0.665, 4.272e-5
0.664, 4.266e-5
0.663, 4.261e-5
0.662, 4.256e-5
0.661, 4.252e-5
0.660, 4.247e-5
0.659, 4.243e-5
0.658, 4.239e-5
0.657, 4.234e-5
0.656, 4.230e-5
0.655, 4.226e-5
0.654, 4.221e-5
0.653, 4.217e-5
0.652, 4.213e-5
0.651, 4.208e-5
0.650, 4.203e-5
0.649, 4.198e-5
0.648, 4.193e-5
0.647, 4.188e-5
0.646, 4.183e-5
0.645, 4.178e-5
0.644, 4.173e-5
0.643, 4.168e-5
0.642, 4.163e-5
0.641, 4.158e-5
0.640, 4.152e-5
0.639, 4.148e-5
0.638, 4.143e-5
0.637, 4.138e-5
0.636, 4.134e-5
0.635, 4.129e-5
0.634, 4.124e-5
0.633, 4.120e-5
0.632, 4.115e-5
0.631, 4.111e-5
0.630, 4.107e-5
0.629, 4.102e-5
0.628, 4.097e-5
0.627, 4.093e-5
0.626, 4.088e-5
0.625, 4.084e-5
0.624, 4.079e-5
0.623, 4.074e-5
0.622, 4.069e-5
0.621, 4.064e-5
0.620, 4.059e-5
0.619, 4.054e-5
0.618, 4.048e-5
0.617, 4.043e-5
0.616, 4.037e-5
0.615, 4.032e-5
0.614, 4.026e-5
0.613, 4.021e-5
0.612, 4.016e-5
0.611, 4.012e-5
0.610, 4.007e-5
0.609, 4.003e-5
0.608, 3.998e-5
0.607, 3.994e-5
0.606, 3.990e-5
0.605, 3.986e-5
0.604, 3.982e-5
0.603, 3.978e-5
0.602, 3.973e-5
0.601, 3.969e-5
0.600, 3.965e-5
0.599, 3.960e-5
0.598, 3.955e-5
0.597, 3.950e-5
0.596, 3.945e-5
0.595, 3.940e-5
0.594, 3.935e-5
0.593, 3.930e-5
0.592, 3.925e-5
0.591, 3.920e-5
0.590, 3.915e-5
0.589, 3.910e-5
0.588, 3.905e-5
0.587, 3.900e-5
0.586, 3.895e-5
0.585, 3.891e-5
0.584, 3.886e-5
0.583, 3.881e-5
0.582, 3.877e-5
0.581, 3.871e-5
0.580, 3.866e-5
0.579, 3.861e-5
0.578, 3.857e-5
0.577, 3.852e-5
0.576, 3.847e-5
0.575, 3.842e-5
0.574, 3.837e-5
0.573, 3.832e-5
0.572, 3.827e-5
0.571, 3.821e-5
0.570, 3.816e-5
0.569, 3.810e-5
0.568, 3.804e-5
0.567, 3.799e-5
0.566, 3.793e-5
0.565, 3.787e-5
0.564, 3.782e-5
0.563, 3.776e-5
0.562, 3.771e-5
0.561, 3.767e-5
0.560, 3.762e-5
0.559, 3.758e-5
0.558, 3.754e-5
0.557, 3.750e-5
0.556, 3.746e-5
0.555, 3.741e-5
0.554, 3.737e-5
0.553, 3.732e-5
0.552, 3.727e-5
0.551, 3.723e-5
0.550, 3.717e-5
0.549, 3.712e-5
0.548, 3.707e-5
0.547, 3.701e-5
0.546, 3.696e-5
0.545, 3.690e-5
0.544, 3.685e-5
0.543, 3.679e-5
0.542, 3.673e-5
0.541, 3.667e-5
0.540, 3.661e-5
0.539, 3.655e-5
0.538, 3.650e-5
0.537, 3.644e-5
0.536, 3.639e-5
0.535, 3.634e-5
0.534, 3.628e-5
0.533, 3.623e-5
0.532, 3.617e-5
0.531, 3.611e-5
0.530, 3.605e-5
0.529, 3.599e-5
0.528, 3.593e-5
0.527, 3.586e-5
0.526, 3.580e-5
0.525, 3.573e-5
0.524, 3.567e-5
0.523, 3.560e-5
0.522, 3.554e-5
0.521, 3.547e-5
0.520, 3.540e-5
0.519, 3.534e-5
0.518, 3.527e-5
0.517, 3.521e-5
0.516, 3.515e-5
0.515, 3.509e-5
0.514, 3.504e-5
0.513, 3.498e-5
0.512, 3.492e-5
0.511, 3.485e-5
0.510, 3.479e-5
0.509, 3.472e-5
0.508, 3.466e-5
0.507, 3.459e-5
0.506, 3.451e-5
0.505, 3.444e-5
0.504, 3.437e-5
0.503, 3.430e-5
0.502, 3.424e-5
0.501, 3.417e-5
0.500, 3.409e-5
0.499, 3.401e-5
0.498, 3.394e-5
0.497, 3.386e-5
0.496, 3.379e-5
0.495, 3.372e-5
0.494, 3.365e-5
0.493, 3.357e-5
0.492, 3.349e-5
0.491, 3.341e-5
0.490, 3.332e-5
0.489, 3.323e-5
0.488, 3.314e-5
0.487, 3.305e-5
0.486, 3.297e-5
0.485, 3.289e-5
0.484, 3.281e-5
0.483, 3.274e-5
0.482, 3.266e-5
0.481, 3.259e-5
0.480, 3.252e-5
0.479, 3.245e-5
0.478, 3.237e-5
0.477, 3.229e-5
0.476, 3.220e-5
0.475, 3.212e-5
0.474, 3.203e-5
0.473, 3.193e-5
0.472, 3.184e-5
0.471, 3.175e-5
0.470, 3.167e-5
0.469, 3.158e-5
0.468, 3.149e-5
0.467, 3.140e-5
0.466, 3.131e-5
0.465, 3.122e-5
0.464, 3.113e-5
0.463, 3.103e-5
0.462, 3.093e-5
0.461, 3.083e-5
0.460, 3.072e-5
0.459, 3.062e-5
0.458, 3.051e-5
0.457, 3.041e-5
0.456, 3.031e-5
0.455, 3.022e-5
0.454, 3.013e-5
0.453, 3.004e-5
0.452, 2.994e-5
0.451, 2.984e-5
0.450, 2.974e-5
0.449, 2.964e-5
0.448, 2.953e-5
0.447, 2.942e-5
0.446, 2.932e-5
0.445, 2.921e-5
0.444, 2.911e-5
0.443, 2.901e-5
0.442, 2.891e-5
0.441, 2.880e-5
0.440, 2.869e-5
0.439, 2.858e-5
0.438, 2.847e-5
0.437, 2.835e-5
0.436, 2.823e-5
0.435, 2.811e-5
0.434, 2.800e-5
0.433, 2.790e-5
0.432, 2.781e-5
0.431, 2.772e-5
0.430, 2.762e-5
0.429, 2.752e-5
0.428, 2.741e-5
0.427, 2.729e-5
0.426, 2.718e-5
0.425, 2.706e-5
0.424, 2.695e-5
0.423, 2.683e-5
0.422, 2.672e-5
0.421, 2.661e-5
0.420, 2.650e-5
0.419, 2.639e-5
0.418, 2.628e-5
0.417, 2.616e-5
0.416, 2.604e-5
0.415, 2.592e-5
0.414, 2.579e-5
0.413, 2.566e-5
0.412, 2.554e-5
0.411, 2.543e-5
0.410, 2.532e-5
0.409, 2.521e-5
0.408, 2.510e-5
0.407, 2.499e-5
0.406, 2.486e-5
0.405, 2.474e-5
0.404, 2.461e-5
0.403, 2.448e-5
0.402, 2.435e-5
0.401, 2.423e-5
0.400, 2.412e-5
0.399, 2.400e-5
0.398, 2.388e-5
0.397, 2.376e-5
0.396, 2.362e-5
0.395, 2.349e-5
0.394, 2.335e-5
0.393, 2.322e-5
0.392, 2.309e-5
0.391, 2.297e-5
0.390, 2.286e-5
0.389, 2.275e-5
0.388, 2.263e-5
0.387, 2.252e-5
0.386, 2.239e-5
0.385, 2.227e-5
0.384, 2.214e-5
0.383, 2.201e-5
0.382, 2.188e-5
0.381, 2.175e-5
0.380, 2.165e-5
0.379, 2.156e-5
0.378, 2.150e-5
0.377, 2.145e-5
0.376, 2.137e-5
0.375, 2.125e-5
0.374, 2.108e-5
0.373, 2.089e-5
0.372, 2.070e-5
0.371, 2.055e-5
0.370, 2.041e-5
0.369, 2.029e-5
0.368, 2.017e-5
0.367, 2.005e-5
0.366, 1.992e-5
0.365, 1.979e-5
0.364, 1.966e-5
0.363, 1.953e-5
0.362, 1.940e-5
0.361, 1.927e-5
0.360, 1.914e-5
0.359, 1.901e-5
0.358, 1.887e-5
0.357, 1.873e-5
0.356, 1.857e-5
0.355, 1.842e-5
0.354, 1.827e-5
0.353, 1.814e-5
0.352, 1.801e-5
0.351, 1.788e-5
0.350, 1.776e-5
0.349, 1.763e-5
0.348, 1.750e-5
0.347, 1.738e-5
0.346, 1.726e-5
0.345, 1.714e-5
0.344, 1.702e-5
0.343, 1.689e-5
0.342, 1.676e-5
0.341, 1.663e-5
0.340, 1.649e-5
0.339, 1.634e-5
0.338, 1.619e-5
0.337, 1.603e-5
0.336, 1.587e-5
0.335, 1.573e-5
0.334, 1.560e-5
0.333, 1.546e-5
0.332, 1.533e-5
0.331, 1.519e-5
0.330, 1.504e-5
0.329, 1.489e-5
0.328, 1.474e-5
0.327, 1.459e-5
0.326, 1.444e-5
0.325, 1.429e-5
0.324, 1.414e-5
0.323, 1.397e-5
0.322, 1.379e-5
0.321, 1.361e-5
0.320, 1.344e-5
0.319, 1.328e-5
0.318, 1.314e-5
0.317, 1.301e-5
0.316, 1.287e-5
0.315, 1.273e-5
0.314, 1.257e-5
0.313, 1.241e-5
0.312, 1.224e-5
0.311, 1.208e-5
0.310, 1.192e-5
0.309, 1.175e-5
0.308, 1.158e-5
0.307, 1.140e-5
0.306, 1.121e-5
0.305, 1.102e-5
0.304, 1.084e-5
0.303, 1.067e-5
0.302, 1.051e-5
0.301, 1.033e-5
0.300, 1.014e-5
0.299, 9.942e-6
0.298, 9.748e-6
0.297, 9.559e-6
0.296, 9.369e-6
0.295, 9.170e-6
0.294, 8.959e-6
0.293, 8.740e-6
0.292, 8.527e-6
0.291, 8.327e-6
0.290, 8.138e-6
0.289, 7.952e-6
0.288, 7.760e-6
0.287, 7.561e-6
0.286, 7.355e-6
0.285, 7.148e-6
0.284, 6.936e-6
0.283, 6.716e-6
0.282, 6.488e-6
0.281, 6.253e-6
0.280, 6.020e-6
0.279, 5.793e-6
0.278, 5.569e-6
0.277, 5.346e-6
0.276, 5.118e-6
0.275, 4.884e-6
0.274, 4.639e-6
0.273, 4.383e-6
0.272, 4.118e-6
0.271, 3.851e-6
0.270, 3.595e-6
0.269, 3.352e-6
0.268, 3.116e-6
0.267, 2.873e-6
0.266, 2.621e-6
0.265, 2.358e-6
0.264, 2.086e-6
0.263, 1.808e-6
0.262, 1.528e-6
0.261, 1.248e-6
0.260, 9.722e-7
0.259, 6.959e-7
0.258, 4.123e-7
0.257, 1.159e-7
0.256, -1.933e-7
0.255, -5.109e-7
0.254, -8.329e-7
0.253, -1.154e-6
0.252, -1.470e-6
0.251, -1.784e-6
0.250, -2.103e-6
0.249, -2.430e-6
0.248, -2.766e-6
0.247, -3.108e-6
0.246, -3.453e-6
0.245, -3.800e-6
0.244, -4.146e-6
0.243, -4.498e-6
0.242, -4.859e-6
0.241, -5.228e-6
0.240, -5.603e-6
0.239, -5.983e-6
0.238, -6.358e-6
0.237, -6.733e-6
0.236, -7.118e-6
0.235, -7.512e-6
0.234, -7.913e-6
0.233, -8.322e-6
0.232, -8.729e-6
0.231, -9.136e-6
0.230, -9.553e-6
0.229, -9.979e-6
0.228, -1.041e-5
0.227, -1.086e-5
0.226, -1.130e-5
0.225, -1.174e-5
0.224, -1.218e-5
0.223, -1.263e-5
0.222, -1.308e-5
0.221, -1.354e-5
0.220, -1.400e-5
0.219, -1.447e-5
0.218, -1.495e-5
0.217, -1.545e-5
0.216, -1.594e-5
0.215, -1.643e-5
0.214, -1.693e-5
0.213, -1.742e-5
0.212, -1.792e-5
0.211, -1.842e-5
0.210, -1.893e-5
0.209, -1.946e-5
0.208, -1.999e-5
0.207, -2.053e-5
0.206, -2.107e-5
0.205, -2.161e-5
0.204, -2.216e-5
0.203, -2.272e-5
0.202, -2.328e-5
0.201, -2.385e-5
0.200, -2.441e-5
0.199, -2.498e-5
0.198, -2.556e-5
0.197, -2.613e-5
0.196, -2.671e-5
0.195, -2.729e-5
0.194, -2.788e-5
0.193, -2.848e-5
0.192, -2.908e-5
0.191, -2.969e-5
0.190, -3.030e-5
0.189, -3.091e-5
0.188, -3.152e-5
0.187, -3.214e-5
0.186, -3.276e-5
0.185, -3.338e-5
0.184, -3.401e-5
0.183, -3.464e-5
0.182, -3.528e-5
0.181, -3.591e-5
0.180, -3.654e-5
0.179, -3.717e-5
0.178, -3.778e-5
0.177, -3.840e-5
0.176, -3.903e-5
0.175, -3.967e-5
0.174, -4.032e-5
0.173, -4.098e-5
0.172, -4.163e-5
0.171, -4.229e-5
0.170, -4.295e-5
0.169, -4.361e-5
0.168, -4.428e-5
0.167, -4.495e-5
0.166, -4.562e-5
0.165, -4.629e-5
0.164, -4.695e-5
0.163, -4.760e-5
0.162, -4.826e-5
0.161, -4.892e-5
0.160, -4.959e-5
0.159, -5.026e-5
0.158, -5.093e-5
0.157, -5.159e-5
0.156, -5.225e-5
0.155, -5.291e-5
0.154, -5.358e-5
0.153, -5.424e-5
0.152, -5.490e-5
0.151, -5.556e-5
0.150, -5.621e-5
0.149, -5.686e-5
0.148, -5.750e-5
0.147, -5.815e-5
0.146, -5.880e-5
0.145, -5.945e-5
0.144, -6.009e-5
0.143, -6.073e-5
0.142, -6.136e-5
0.141, -6.200e-5
0.140, -6.264e-5
0.139, -6.328e-5
0.138, -6.391e-5
0.137, -6.454e-5
0.136, -6.516e-5
0.135, -6.578e-5
0.134, -6.640e-5
0.133, -6.701e-5
0.132, -6.762e-5
0.131, -6.823e-5
0.130, -6.883e-5
0.129, -6.942e-5
0.128, -7.000e-5
0.127, -7.058e-5
0.126, -7.115e-5
0.125, -7.173e-5
0.124, -7.231e-5
0.123, -7.288e-5
0.122, -7.345e-5
0.121, -7.401e-5
0.120, -7.457e-5
0.119, -7.511e-5
0.118, -7.565e-5
0.117, -7.618e-5
0.116, -7.670e-5
0.115, -7.722e-5
0.114, -7.773e-5
0.113, -7.823e-5
0.112, -7.874e-5
0.111, -7.924e-5
0.110, -7.973e-5
0.109, -8.021e-5
0.108, -8.069e-5
0.107, -8.117e-5
0.106, -8.165e-5
0.105, -8.211e-5
0.104, -8.257e-5
0.103, -8.302e-5
0.102, -8.347e-5
0.101, -8.392e-5
0.100, -8.435e-5
0.099, -8.478e-5
0.098, -8.520e-5
0.097, -8.561e-5
0.096, -8.603e-5
0.095, -8.644e-5
0.094, -8.685e-5
0.093, -8.723e-5
0.092, -8.761e-5
0.091, -8.799e-5
0.090, -8.837e-5
0.089, -8.875e-5
0.088, -8.911e-5
0.087, -8.945e-5
0.086, -8.979e-5
0.085, -9.012e-5
0.084, -9.045e-5
0.083, -9.079e-5
0.082, -9.112e-5
0.081, -9.144e-5
0.080, -9.175e-5
0.079, -9.205e-5
0.078, -9.234e-5
0.077, -9.262e-5
0.076, -9.291e-5
0.075, -9.319e-5
0.074, -9.348e-5
0.073, -9.375e-5
0.072, -9.402e-5
0.071, -9.426e-5
0.070, -9.450e-5
0.069, -9.473e-5
0.068, -9.496e-5
0.067, -9.519e-5
0.066, -9.541e-5
0.065, -9.562e-5
0.064, -9.584e-5
0.063, -9.605e-5
0.062, -9.625e-5
0.061, -9.644e-5
0.060, -9.661e-5
0.059, -9.678e-5
0.058, -9.695e-5
0.057, -9.712e-5
0.056, -9.730e-5
0.055, -9.746e-5
0.054, -9.762e-5
0.053, -9.777e-5
0.052, -9.792e-5
0.051, -9.806e-5
0.050, -9.820e-5
0.049, -9.835e-5
0.048, -9.849e-5
0.047, -9.863e-5
0.046, -9.875e-5
0.045, -9.886e-5
0.044, -9.895e-5
0.043, -9.904e-5
0.042, -9.912e-5
0.041, -9.920e-5
0.040, -9.929e-5
0.039, -9.937e-5
0.038, -9.945e-5
0.037, -9.953e-5
0.036, -9.960e-5
0.035, -9.967e-5
0.034, -9.974e-5
0.033, -9.981e-5
0.032, -9.986e-5
0.031, -9.992e-5
0.030, -9.996e-5
0.029, -1.000e-4
0.028, -1.000e-4
0.027, -1.001e-4
0.026, -1.001e-4
0.025, -1.001e-4
0.024, -1.002e-4
0.023, -1.002e-4
0.022, -1.002e-4
0.021, -1.002e-4
0.020, -1.002e-4
0.019, -1.002e-4
0.018, -1.002e-4
0.017, -1.002e-4
0.016, -1.002e-4
0.015, -1.002e-4
0.014, -1.002e-4
0.013, -1.002e-4
0.012, -1.002e-4
0.011, -1.002e-4
0.010, -1.002e-4
0.009, -1.001e-4
0.008, -1.001e-4
0.007, -1.001e-4
0.006, -1.001e-4
0.005, -1.000e-4
0.004, -9.999e-5
0.003, -9.995e-5
0.002, -9.991e-5
0.001, -9.987e-5
0.000, -9.982e-5
-0.001, -9.977e-5
-0.002, -9.972e-5
-0.003, -9.966e-5
-0.004, -9.961e-5
-0.005, -9.955e-5
-0.006, -9.949e-5
-0.007, -9.943e-5
-0.008, -9.936e-5
-0.009, -9.930e-5
-0.010, -9.924e-5
-0.011, -9.917e-5
-0.012, -9.911e-5
-0.013, -9.905e-5
-0.014, -9.899e-5
-0.015, -9.893e-5
-0.016, -9.886e-5
-0.017, -9.878e-5
-0.018, -9.870e-5
-0.019, -9.861e-5
-0.020, -9.852e-5
-0.021, -9.843e-5
-0.022, -9.833e-5
-0.023, -9.823e-5
-0.024, -9.813e-5
-0.025, -9.804e-5
-0.026, -9.794e-5
-0.027, -9.784e-5
-0.028, -9.775e-5
-0.029, -9.766e-5
-0.030, -9.757e-5
-0.031, -9.747e-5
-0.032, -9.736e-5
-0.033, -9.726e-5
-0.034, -9.715e-5
-0.035, -9.705e-5
-0.036, -9.694e-5
-0.037, -9.684e-5
-0.038, -9.674e-5
-0.039, -9.665e-5
-0.040, -9.655e-5
-0.041, -9.646e-5
-0.042, -9.636e-5
-0.043, -9.625e-5
-0.044, -9.613e-5
-0.045, -9.601e-5
-0.046, -9.589e-5
-0.047, -9.576e-5
-0.048, -9.565e-5
-0.049, -9.553e-5
-0.050, -9.542e-5
-0.051, -9.531e-5
-0.052, -9.520e-5
-0.053, -9.509e-5
-0.054, -9.496e-5
-0.055, -9.484e-5
-0.056, -9.471e-5
-0.057, -9.459e-5
-0.058, -9.447e-5
-0.059, -9.436e-5
-0.060, -9.425e-5
-0.061, -9.414e-5
-0.062, -9.403e-5
-0.063, -9.391e-5
-0.064, -9.378e-5
-0.065, -9.364e-5
-0.066, -9.349e-5
-0.067, -9.335e-5
-0.068, -9.322e-5
-0.069, -9.309e-5
-0.070, -9.297e-5
-0.071, -9.285e-5
-0.072, -9.273e-5
-0.073, -9.260e-5
-0.074, -9.247e-5
-0.075, -9.234e-5
-0.076, -9.221e-5
-0.077, -9.207e-5
-0.078, -9.194e-5
-0.079, -9.182e-5
-0.080, -9.170e-5
-0.081, -9.157e-5
-0.082, -9.145e-5
-0.083, -9.131e-5
-0.084, -9.116e-5
-0.085, -9.101e-5
-0.086, -9.087e-5
-0.087, -9.073e-5
-0.088, -9.060e-5
-0.089, -9.048e-5
-0.090, -9.035e-5
-0.091, -9.023e-5
-0.092, -9.009e-5
-0.093, -8.995e-5
-0.094, -8.981e-5
-0.095, -8.967e-5
-0.096, -8.955e-5
-0.097, -8.943e-5
-0.098, -8.931e-5
-0.099, -8.919e-5
-0.100, -8.907e-5
-0.101, -8.893e-5
-0.102, -8.878e-5
-0.103, -8.862e-5
-0.104, -8.847e-5
-0.105, -8.832e-5
-0.106, -8.819e-5
-0.107, -8.806e-5
-0.108, -8.794e-5
-0.109, -8.782e-5
-0.110, -8.769e-5
-0.111, -8.755e-5
-0.112, -8.741e-5
-0.113, -8.727e-5
-0.114, -8.713e-5
-0.115, -8.701e-5
-0.116, -8.688e-5
-0.117, -8.675e-5
-0.118, -8.661e-5
-0.119, -8.647e-5
-0.120, -8.632e-5
-0.121, -8.618e-5
-0.122, -8.603e-5
-0.123, -8.589e-5
-0.124, -8.576e-5
-0.125, -8.563e-5
-0.126, -8.549e-5
-0.127, -8.536e-5
-0.128, -8.522e-5
-0.129, -8.508e-5
-0.130, -8.494e-5
-0.131, -8.481e-5
-0.132, -8.467e-5
-0.133, -8.455e-5
-0.134, -8.444e-5
-0.135, -8.432e-5
-0.136, -8.419e-5
-0.137, -8.405e-5
-0.138, -8.390e-5
-0.139, -8.374e-5
-0.140, -8.359e-5
-0.141, -8.344e-5
-0.142, -8.331e-5
-0.143, -8.318e-5
-0.144, -8.305e-5
-0.145, -8.292e-5
-0.146, -8.279e-5
-0.147, -8.265e-5
-0.148, -8.252e-5
-0.149, -8.238e-5
-0.150, -8.226e-5
-0.151, -8.213e-5
-0.152, -8.201e-5
-0.153, -8.188e-5
-0.154, -8.175e-5
-0.155, -8.161e-5
-0.156, -8.147e-5
-0.157, -8.132e-5
-0.158, -8.118e-5
-0.159, -8.104e-5
-0.160, -8.091e-5
-0.161, -8.079e-5
-0.162, -8.067e-5
-0.163, -8.054e-5
-0.164, -8.041e-5
-0.165, -8.028e-5
-0.166, -8.014e-5
-0.167, -8.001e-5
-0.168, -7.988e-5
-0.169, -7.976e-5
-0.170, -7.964e-5
-0.171, -7.953e-5
-0.172, -7.942e-5
-0.173, -7.930e-5
-0.174, -7.917e-5
-0.175, -7.903e-5
-0.176, -7.889e-5
-0.177, -7.875e-5
-0.178, -7.861e-5
-0.179, -7.848e-5
-0.180, -7.835e-5
-0.181, -7.824e-5
-0.182, -7.812e-5
-0.183, -7.800e-5
-0.184, -7.788e-5
-0.185, -7.777e-5
-0.186, -7.764e-5
-0.187, -7.752e-5
-0.188, -7.740e-5
-0.189, -7.728e-5
-0.190, -7.716e-5
-0.191, -7.705e-5
-0.192, -7.693e-5
-0.193, -7.682e-5
-0.194, -7.670e-5
-0.195, -7.657e-5
-0.196, -7.644e-5
-0.197, -7.631e-5
-0.198, -7.619e-5
-0.199, -7.606e-5
