Dec. 18, 2021   17:08:26
Cyclic Voltammetry
File: c:\gtl 2\cp\rib,pn\vb2\surface area\ferric characterization\bcpe-50.txt
Data Source:  Experiment
Instrument Model:  CHI760D
Data Proc:  Smoothing
Header: 
Note: 

Init E (V) = -0.2
High E (V) = 0.8
Low E (V) = -0.2
Init P/N = P
Scan Rate (V/s) = 0.05
Segment = 2
Sample Interval (V) = 0.001
Quiet Time (sec) = 2
Sensitivity (A/V) = 0.001

Segment 1:
Ep = 0.359V
Eh = 0.235V
ip = 9.078e-5A
Ah = 2.319e-4C

Segment 2:
Ep = 0.084V
Eh = 0.199V
ip = -9.727e-5A
Ah = -2.312e-4C

Potential/V, Current/A

-0.200, -5.188e-5
-0.199, -5.156e-5
-0.198, -5.126e-5
-0.197, -5.098e-5
-0.196, -5.072e-5
-0.195, -5.048e-5
-0.194, -5.026e-5
-0.193, -5.004e-5
-0.192, -4.980e-5
-0.191, -4.957e-5
-0.190, -4.934e-5
-0.189, -4.912e-5
-0.188, -4.891e-5
-0.187, -4.870e-5
-0.186, -4.850e-5
-0.185, -4.830e-5
-0.184, -4.811e-5
-0.183, -4.793e-5
-0.182, -4.776e-5
-0.181, -4.758e-5
-0.180, -4.740e-5
-0.179, -4.722e-5
-0.178, -4.704e-5
-0.177, -4.687e-5
-0.176, -4.671e-5
-0.175, -4.655e-5
-0.174, -4.638e-5
-0.173, -4.620e-5
-0.172, -4.602e-5
-0.171, -4.585e-5
-0.170, -4.569e-5
-0.169, -4.554e-5
-0.168, -4.540e-5
-0.167, -4.525e-5
-0.166, -4.510e-5
-0.165, -4.493e-5
-0.164, -4.475e-5
-0.163, -4.458e-5
-0.162, -4.443e-5
-0.161, -4.428e-5
-0.160, -4.414e-5
-0.159, -4.400e-5
-0.158, -4.386e-5
-0.157, -4.371e-5
-0.156, -4.356e-5
-0.155, -4.341e-5
-0.154, -4.327e-5
-0.153, -4.314e-5
-0.152, -4.302e-5
-0.151, -4.290e-5
-0.150, -4.277e-5
-0.149, -4.263e-5
-0.148, -4.249e-5
-0.147, -4.234e-5
-0.146, -4.221e-5
-0.145, -4.208e-5
-0.144, -4.195e-5
-0.143, -4.183e-5
-0.142, -4.171e-5
-0.141, -4.159e-5
-0.140, -4.147e-5
-0.139, -4.133e-5
-0.138, -4.120e-5
-0.137, -4.107e-5
-0.136, -4.095e-5
-0.135, -4.083e-5
-0.134, -4.072e-5
-0.133, -4.062e-5
-0.132, -4.052e-5
-0.131, -4.042e-5
-0.130, -4.031e-5
-0.129, -4.019e-5
-0.128, -4.006e-5
-0.127, -3.993e-5
-0.126, -3.980e-5
-0.125, -3.967e-5
-0.124, -3.956e-5
-0.123, -3.945e-5
-0.122, -3.934e-5
-0.121, -3.924e-5
-0.120, -3.913e-5
-0.119, -3.903e-5
-0.118, -3.892e-5
-0.117, -3.881e-5
-0.116, -3.871e-5
-0.115, -3.861e-5
-0.114, -3.851e-5
-0.113, -3.842e-5
-0.112, -3.833e-5
-0.111, -3.825e-5
-0.110, -3.816e-5
-0.109, -3.807e-5
-0.108, -3.799e-5
-0.107, -3.789e-5
-0.106, -3.779e-5
-0.105, -3.769e-5
-0.104, -3.758e-5
-0.103, -3.747e-5
-0.102, -3.737e-5
-0.101, -3.727e-5
-0.100, -3.717e-5
-0.099, -3.707e-5
-0.098, -3.697e-5
-0.097, -3.687e-5
-0.096, -3.678e-5
-0.095, -3.668e-5
-0.094, -3.659e-5
-0.093, -3.648e-5
-0.092, -3.638e-5
-0.091, -3.628e-5
-0.090, -3.618e-5
-0.089, -3.608e-5
-0.088, -3.599e-5
-0.087, -3.590e-5
-0.086, -3.582e-5
-0.085, -3.574e-5
-0.084, -3.567e-5
-0.083, -3.559e-5
-0.082, -3.550e-5
-0.081, -3.541e-5
-0.080, -3.531e-5
-0.079, -3.521e-5
-0.078, -3.510e-5
-0.077, -3.500e-5
-0.076, -3.490e-5
-0.075, -3.480e-5
-0.074, -3.470e-5
-0.073, -3.461e-5
-0.072, -3.452e-5
-0.071, -3.443e-5
-0.070, -3.434e-5
-0.069, -3.426e-5
-0.068, -3.417e-5
-0.067, -3.407e-5
-0.066, -3.398e-5
-0.065, -3.389e-5
-0.064, -3.380e-5
-0.063, -3.371e-5
-0.062, -3.362e-5
-0.061, -3.354e-5
-0.060, -3.346e-5
-0.059, -3.338e-5
-0.058, -3.330e-5
-0.057, -3.323e-5
-0.056, -3.315e-5
-0.055, -3.306e-5
-0.054, -3.297e-5
-0.053, -3.288e-5
-0.052, -3.278e-5
-0.051, -3.269e-5
-0.050, -3.259e-5
-0.049, -3.250e-5
-0.048, -3.240e-5
-0.047, -3.232e-5
-0.046, -3.223e-5
-0.045, -3.214e-5
-0.044, -3.206e-5
-0.043, -3.198e-5
-0.042, -3.189e-5
-0.041, -3.181e-5
-0.040, -3.172e-5
-0.039, -3.164e-5
-0.038, -3.155e-5
-0.037, -3.146e-5
-0.036, -3.137e-5
-0.035, -3.128e-5
-0.034, -3.120e-5
-0.033, -3.112e-5
-0.032, -3.104e-5
-0.031, -3.096e-5
-0.030, -3.089e-5
-0.029, -3.082e-5
-0.028, -3.075e-5
-0.027, -3.068e-5
-0.026, -3.061e-5
-0.025, -3.053e-5
-0.024, -3.044e-5
-0.023, -3.034e-5
-0.022, -3.024e-5
-0.021, -3.015e-5
-0.020, -3.005e-5
-0.019, -2.995e-5
-0.018, -2.986e-5
-0.017, -2.977e-5
-0.016, -2.969e-5
-0.015, -2.961e-5
-0.014, -2.952e-5
-0.013, -2.944e-5
-0.012, -2.936e-5
-0.011, -2.927e-5
-0.010, -2.918e-5
-0.009, -2.909e-5
-0.008, -2.900e-5
-0.007, -2.892e-5
-0.006, -2.883e-5
-0.005, -2.875e-5
-0.004, -2.866e-5
-0.003, -2.859e-5
-0.002, -2.851e-5
-0.001, -2.843e-5
0.000, -2.836e-5
0.001, -2.829e-5
0.002, -2.821e-5
0.003, -2.813e-5
0.004, -2.803e-5
0.005, -2.794e-5
0.006, -2.784e-5
0.007, -2.774e-5
0.008, -2.765e-5
0.009, -2.756e-5
0.010, -2.747e-5
0.011, -2.738e-5
0.012, -2.729e-5
0.013, -2.721e-5
0.014, -2.712e-5
0.015, -2.704e-5
0.016, -2.695e-5
0.017, -2.687e-5
0.018, -2.677e-5
0.019, -2.668e-5
0.020, -2.659e-5
0.021, -2.649e-5
0.022, -2.640e-5
0.023, -2.631e-5
0.024, -2.622e-5
0.025, -2.614e-5
0.026, -2.606e-5
0.027, -2.599e-5
0.028, -2.591e-5
0.029, -2.584e-5
0.030, -2.576e-5
0.031, -2.568e-5
0.032, -2.558e-5
0.033, -2.548e-5
0.034, -2.536e-5
0.035, -2.525e-5
0.036, -2.514e-5
0.037, -2.503e-5
0.038, -2.493e-5
0.039, -2.484e-5
0.040, -2.474e-5
0.041, -2.465e-5
0.042, -2.455e-5
0.043, -2.446e-5
0.044, -2.435e-5
0.045, -2.425e-5
0.046, -2.414e-5
0.047, -2.403e-5
0.048, -2.393e-5
0.049, -2.383e-5
0.050, -2.374e-5
0.051, -2.365e-5
0.052, -2.355e-5
0.053, -2.346e-5
0.054, -2.336e-5
0.055, -2.325e-5
0.056, -2.314e-5
0.057, -2.302e-5
0.058, -2.290e-5
0.059, -2.277e-5
0.060, -2.265e-5
0.061, -2.253e-5
0.062, -2.242e-5
0.063, -2.230e-5
0.064, -2.219e-5
0.065, -2.207e-5
0.066, -2.195e-5
0.067, -2.182e-5
0.068, -2.170e-5
0.069, -2.157e-5
0.070, -2.145e-5
0.071, -2.133e-5
0.072, -2.121e-5
0.073, -2.111e-5
0.074, -2.100e-5
0.075, -2.089e-5
0.076, -2.077e-5
0.077, -2.063e-5
0.078, -2.047e-5
0.079, -2.031e-5
0.080, -2.015e-5
0.081, -1.999e-5
0.082, -1.985e-5
0.083, -1.971e-5
0.084, -1.956e-5
0.085, -1.941e-5
0.086, -1.924e-5
0.087, -1.908e-5
0.088, -1.892e-5
0.089, -1.877e-5
0.090, -1.862e-5
0.091, -1.848e-5
0.092, -1.832e-5
0.093, -1.815e-5
0.094, -1.797e-5
0.095, -1.779e-5
0.096, -1.762e-5
0.097, -1.744e-5
0.098, -1.726e-5
0.099, -1.707e-5
0.100, -1.687e-5
0.101, -1.668e-5
0.102, -1.649e-5
0.103, -1.631e-5
0.104, -1.612e-5
0.105, -1.592e-5
0.106, -1.570e-5
0.107, -1.548e-5
0.108, -1.525e-5
0.109, -1.502e-5
0.110, -1.479e-5
0.111, -1.456e-5
0.112, -1.433e-5
0.113, -1.410e-5
0.114, -1.386e-5
0.115, -1.363e-5
0.116, -1.338e-5
0.117, -1.313e-5
0.118, -1.287e-5
0.119, -1.261e-5
0.120, -1.235e-5
0.121, -1.208e-5
0.122, -1.181e-5
0.123, -1.153e-5
0.124, -1.125e-5
0.125, -1.096e-5
0.126, -1.066e-5
0.127, -1.035e-5
0.128, -1.003e-5
0.129, -9.719e-6
0.130, -9.406e-6
0.131, -9.091e-6
0.132, -8.768e-6
0.133, -8.435e-6
0.134, -8.092e-6
0.135, -7.743e-6
0.136, -7.391e-6
0.137, -7.039e-6
0.138, -6.687e-6
0.139, -6.329e-6
0.140, -5.960e-6
0.141, -5.577e-6
0.142, -5.188e-6
0.143, -4.793e-6
0.144, -4.395e-6
0.145, -3.994e-6
0.146, -3.584e-6
0.147, -3.163e-6
0.148, -2.740e-6
0.149, -2.312e-6
0.150, -1.880e-6
0.151, -1.443e-6
0.152, -9.894e-7
0.153, -5.215e-7
0.154, -5.010e-8
0.155, 4.234e-7
0.156, 8.950e-7
0.157, 1.368e-6
0.158, 1.846e-6
0.159, 2.328e-6
0.160, 2.814e-6
0.161, 3.310e-6
0.162, 3.822e-6
0.163, 4.353e-6
0.164, 4.894e-6
0.165, 5.442e-6
0.166, 5.996e-6
0.167, 6.553e-6
0.168, 7.112e-6
0.169, 7.678e-6
0.170, 8.251e-6
0.171, 8.840e-6
0.172, 9.442e-6
0.173, 1.005e-5
0.174, 1.066e-5
0.175, 1.127e-5
0.176, 1.189e-5
0.177, 1.251e-5
0.178, 1.314e-5
0.179, 1.379e-5
0.180, 1.445e-5
0.181, 1.512e-5
0.182, 1.579e-5
0.183, 1.645e-5
0.184, 1.711e-5
0.185, 1.779e-5
0.186, 1.848e-5
0.187, 1.919e-5
0.188, 1.990e-5
0.189, 2.061e-5
0.190, 2.132e-5
0.191, 2.204e-5
0.192, 2.277e-5
0.193, 2.351e-5
0.194, 2.427e-5
0.195, 2.503e-5
0.196, 2.579e-5
0.197, 2.655e-5
0.198, 2.731e-5
0.199, 2.807e-5
0.200, 2.885e-5
0.201, 2.964e-5
0.202, 3.043e-5
0.203, 3.125e-5
0.204, 3.207e-5
0.205, 3.289e-5
0.206, 3.373e-5
0.207, 3.457e-5
0.208, 3.540e-5
0.209, 3.623e-5
0.210, 3.706e-5
0.211, 3.790e-5
0.212, 3.875e-5
0.213, 3.960e-5
0.214, 4.045e-5
0.215, 4.130e-5
0.216, 4.216e-5
0.217, 4.303e-5
0.218, 4.390e-5
0.219, 4.478e-5
0.220, 4.566e-5
0.221, 4.653e-5
0.222, 4.741e-5
0.223, 4.829e-5
0.224, 4.918e-5
0.225, 5.008e-5
0.226, 5.098e-5
0.227, 5.188e-5
0.228, 5.278e-5
0.229, 5.369e-5
0.230, 5.461e-5
0.231, 5.552e-5
0.232, 5.642e-5
0.233, 5.733e-5
0.234, 5.824e-5
0.235, 5.915e-5
0.236, 6.006e-5
0.237, 6.096e-5
0.238, 6.187e-5
0.239, 6.279e-5
0.240, 6.372e-5
0.241, 6.464e-5
0.242, 6.556e-5
0.243, 6.648e-5
0.244, 6.740e-5
0.245, 6.833e-5
0.246, 6.925e-5
0.247, 7.018e-5
0.248, 7.110e-5
0.249, 7.203e-5
0.250, 7.295e-5
0.251, 7.387e-5
0.252, 7.479e-5
0.253, 7.571e-5
0.254, 7.662e-5
0.255, 7.752e-5
0.256, 7.841e-5
0.257, 7.930e-5
0.258, 8.018e-5
0.259, 8.106e-5
0.260, 8.196e-5
0.261, 8.287e-5
0.262, 8.378e-5
0.263, 8.467e-5
0.264, 8.556e-5
0.265, 8.644e-5
0.266, 8.733e-5
0.267, 8.821e-5
0.268, 8.908e-5
0.269, 8.995e-5
0.270, 9.080e-5
0.271, 9.165e-5
0.272, 9.251e-5
0.273, 9.336e-5
0.274, 9.421e-5
0.275, 9.505e-5
0.276, 9.589e-5
0.277, 9.672e-5
0.278, 9.754e-5
0.279, 9.835e-5
0.280, 9.914e-5
0.281, 9.993e-5
0.282, 1.007e-4
0.283, 1.015e-4
0.284, 1.023e-4
0.285, 1.031e-4
0.286, 1.039e-4
0.287, 1.046e-4
0.288, 1.054e-4
0.289, 1.061e-4
0.290, 1.068e-4
0.291, 1.076e-4
0.292, 1.083e-4
0.293, 1.090e-4
0.294, 1.097e-4
0.295, 1.104e-4
0.296, 1.111e-4
0.297, 1.118e-4
0.298, 1.124e-4
0.299, 1.131e-4
0.300, 1.138e-4
0.301, 1.144e-4
0.302, 1.150e-4
0.303, 1.157e-4
0.304, 1.163e-4
0.305, 1.169e-4
0.306, 1.175e-4
0.307, 1.180e-4
0.308, 1.186e-4
0.309, 1.192e-4
0.310, 1.197e-4
0.311, 1.202e-4
0.312, 1.208e-4
0.313, 1.213e-4
0.314, 1.218e-4
0.315, 1.223e-4
0.316, 1.228e-4
0.317, 1.233e-4
0.318, 1.237e-4
0.319, 1.242e-4
0.320, 1.246e-4
0.321, 1.250e-4
0.322, 1.254e-4
0.323, 1.259e-4
0.324, 1.263e-4
0.325, 1.267e-4
0.326, 1.270e-4
0.327, 1.274e-4
0.328, 1.277e-4
0.329, 1.281e-4
0.330, 1.284e-4
0.331, 1.287e-4
0.332, 1.290e-4
0.333, 1.293e-4
0.334, 1.296e-4
0.335, 1.298e-4
0.336, 1.301e-4
0.337, 1.303e-4
0.338, 1.306e-4
0.339, 1.308e-4
0.340, 1.310e-4
0.341, 1.312e-4
0.342, 1.314e-4
0.343, 1.316e-4
0.344, 1.317e-4
0.345, 1.319e-4
0.346, 1.320e-4
0.347, 1.322e-4
0.348, 1.323e-4
0.349, 1.324e-4
0.350, 1.325e-4
0.351, 1.326e-4
0.352, 1.326e-4
0.353, 1.327e-4
0.354, 1.327e-4
0.355, 1.328e-4
0.356, 1.328e-4
0.357, 1.328e-4
0.358, 1.329e-4
0.359, 1.329e-4
0.360, 1.329e-4
0.361, 1.328e-4
0.362, 1.328e-4
0.363, 1.328e-4
0.364, 1.327e-4
0.365, 1.327e-4
0.366, 1.326e-4
0.367, 1.325e-4
0.368, 1.325e-4
0.369, 1.324e-4
0.370, 1.323e-4
0.371, 1.322e-4
0.372, 1.320e-4
0.373, 1.319e-4
0.374, 1.318e-4
0.375, 1.317e-4
0.376, 1.315e-4
0.377, 1.314e-4
0.378, 1.312e-4
0.379, 1.310e-4
0.380, 1.308e-4
0.381, 1.306e-4
0.382, 1.304e-4
0.383, 1.302e-4
0.384, 1.300e-4
0.385, 1.298e-4
0.386, 1.296e-4
0.387, 1.294e-4
0.388, 1.292e-4
0.389, 1.290e-4
0.390, 1.287e-4
0.391, 1.285e-4
0.392, 1.282e-4
0.393, 1.280e-4
0.394, 1.277e-4
0.395, 1.274e-4
0.396, 1.272e-4
0.397, 1.269e-4
0.398, 1.266e-4
0.399, 1.264e-4
0.400, 1.261e-4
0.401, 1.258e-4
0.402, 1.255e-4
0.403, 1.252e-4
0.404, 1.249e-4
0.405, 1.246e-4
0.406, 1.243e-4
0.407, 1.240e-4
0.408, 1.237e-4
0.409, 1.234e-4
0.410, 1.230e-4
0.411, 1.227e-4
0.412, 1.224e-4
0.413, 1.221e-4
0.414, 1.217e-4
0.415, 1.214e-4
0.416, 1.211e-4
0.417, 1.208e-4
0.418, 1.204e-4
0.419, 1.201e-4
0.420, 1.198e-4
0.421, 1.195e-4
0.422, 1.192e-4
0.423, 1.188e-4
0.424, 1.185e-4
0.425, 1.181e-4
0.426, 1.178e-4
0.427, 1.175e-4
0.428, 1.172e-4
0.429, 1.168e-4
0.430, 1.165e-4
0.431, 1.161e-4
0.432, 1.158e-4
0.433, 1.154e-4
0.434, 1.151e-4
0.435, 1.148e-4
0.436, 1.144e-4
0.437, 1.141e-4
0.438, 1.138e-4
0.439, 1.134e-4
0.440, 1.131e-4
0.441, 1.127e-4
0.442, 1.124e-4
0.443, 1.121e-4
0.444, 1.117e-4
0.445, 1.114e-4
0.446, 1.110e-4
0.447, 1.107e-4
0.448, 1.104e-4
0.449, 1.101e-4
0.450, 1.097e-4
0.451, 1.094e-4
0.452, 1.091e-4
0.453, 1.087e-4
0.454, 1.084e-4
0.455, 1.081e-4
0.456, 1.078e-4
0.457, 1.074e-4
0.458, 1.071e-4
0.459, 1.068e-4
0.460, 1.064e-4
0.461, 1.061e-4
0.462, 1.058e-4
0.463, 1.055e-4
0.464, 1.052e-4
0.465, 1.049e-4
0.466, 1.046e-4
0.467, 1.042e-4
0.468, 1.039e-4
0.469, 1.036e-4
0.470, 1.033e-4
0.471, 1.030e-4
0.472, 1.027e-4
0.473, 1.024e-4
0.474, 1.021e-4
0.475, 1.017e-4
0.476, 1.014e-4
0.477, 1.011e-4
0.478, 1.008e-4
0.479, 1.005e-4
0.480, 1.002e-4
0.481, 9.996e-5
0.482, 9.967e-5
0.483, 9.938e-5
0.484, 9.908e-5
0.485, 9.880e-5
0.486, 9.852e-5
0.487, 9.824e-5
0.488, 9.796e-5
0.489, 9.769e-5
0.490, 9.740e-5
0.491, 9.711e-5
0.492, 9.682e-5
0.493, 9.653e-5
0.494, 9.624e-5
0.495, 9.597e-5
0.496, 9.571e-5
0.497, 9.545e-5
0.498, 9.518e-5
0.499, 9.491e-5
0.500, 9.464e-5
0.501, 9.437e-5
0.502, 9.410e-5
0.503, 9.383e-5
0.504, 9.357e-5
0.505, 9.331e-5
0.506, 9.306e-5
0.507, 9.281e-5
0.508, 9.255e-5
0.509, 9.229e-5
0.510, 9.202e-5
0.511, 9.175e-5
0.512, 9.148e-5
0.513, 9.124e-5
0.514, 9.100e-5
0.515, 9.077e-5
0.516, 9.054e-5
0.517, 9.029e-5
0.518, 9.005e-5
0.519, 8.981e-5
0.520, 8.957e-5
0.521, 8.933e-5
0.522, 8.909e-5
0.523, 8.886e-5
0.524, 8.862e-5
0.525, 8.839e-5
0.526, 8.816e-5
0.527, 8.793e-5
0.528, 8.770e-5
0.529, 8.747e-5
0.530, 8.724e-5
0.531, 8.700e-5
0.532, 8.676e-5
0.533, 8.653e-5
0.534, 8.632e-5
0.535, 8.611e-5
0.536, 8.590e-5
0.537, 8.569e-5
0.538, 8.546e-5
0.539, 8.524e-5
0.540, 8.503e-5
0.541, 8.482e-5
0.542, 8.461e-5
0.543, 8.440e-5
0.544, 8.418e-5
0.545, 8.397e-5
0.546, 8.377e-5
0.547, 8.357e-5
0.548, 8.337e-5
0.549, 8.317e-5
0.550, 8.296e-5
0.551, 8.276e-5
0.552, 8.256e-5
0.553, 8.236e-5
0.554, 8.216e-5
0.555, 8.195e-5
0.556, 8.174e-5
0.557, 8.154e-5
0.558, 8.135e-5
0.559, 8.117e-5
0.560, 8.098e-5
0.561, 8.079e-5
0.562, 8.059e-5
0.563, 8.039e-5
0.564, 8.021e-5
0.565, 8.003e-5
0.566, 7.986e-5
0.567, 7.969e-5
0.568, 7.951e-5
0.569, 7.934e-5
0.570, 7.917e-5
0.571, 7.901e-5
0.572, 7.885e-5
0.573, 7.869e-5
0.574, 7.852e-5
0.575, 7.834e-5
0.576, 7.815e-5
0.577, 7.798e-5
0.578, 7.781e-5
0.579, 7.764e-5
0.580, 7.747e-5
0.581, 7.729e-5
0.582, 7.710e-5
0.583, 7.691e-5
0.584, 7.673e-5
0.585, 7.658e-5
0.586, 7.644e-5
0.587, 7.630e-5
0.588, 7.615e-5
0.589, 7.598e-5
0.590, 7.582e-5
0.591, 7.565e-5
0.592, 7.549e-5
0.593, 7.533e-5
0.594, 7.518e-5
0.595, 7.502e-5
0.596, 7.486e-5
0.597, 7.469e-5
0.598, 7.452e-5
0.599, 7.436e-5
0.600, 7.421e-5
0.601, 7.407e-5
0.602, 7.393e-5
0.603, 7.379e-5
0.604, 7.364e-5
0.605, 7.349e-5
0.606, 7.333e-5
0.607, 7.318e-5
0.608, 7.303e-5
0.609, 7.289e-5
0.610, 7.275e-5
0.611, 7.260e-5
0.612, 7.245e-5
0.613, 7.229e-5
0.614, 7.213e-5
0.615, 7.197e-5
0.616, 7.183e-5
0.617, 7.170e-5
0.618, 7.158e-5
0.619, 7.147e-5
0.620, 7.134e-5
0.621, 7.121e-5
0.622, 7.108e-5
0.623, 7.093e-5
0.624, 7.079e-5
0.625, 7.065e-5
0.626, 7.052e-5
0.627, 7.039e-5
0.628, 7.026e-5
0.629, 7.013e-5
0.630, 6.999e-5
0.631, 6.985e-5
0.632, 6.971e-5
0.633, 6.957e-5
0.634, 6.944e-5
0.635, 6.931e-5
0.636, 6.920e-5
0.637, 6.909e-5
0.638, 6.897e-5
0.639, 6.885e-5
0.640, 6.872e-5
0.641, 6.859e-5
0.642, 6.846e-5
0.643, 6.833e-5
0.644, 6.821e-5
0.645, 6.809e-5
0.646, 6.797e-5
0.647, 6.786e-5
0.648, 6.774e-5
0.649, 6.762e-5
0.650, 6.748e-5
0.651, 6.735e-5
0.652, 6.721e-5
0.653, 6.708e-5
0.654, 6.697e-5
0.655, 6.686e-5
0.656, 6.676e-5
0.657, 6.667e-5
0.658, 6.658e-5
0.659, 6.647e-5
0.660, 6.636e-5
0.661, 6.625e-5
0.662, 6.613e-5
0.663, 6.601e-5
0.664, 6.590e-5
0.665, 6.579e-5
0.666, 6.568e-5
0.667, 6.557e-5
0.668, 6.547e-5
0.669, 6.536e-5
0.670, 6.525e-5
0.671, 6.514e-5
0.672, 6.503e-5
0.673, 6.492e-5
0.674, 6.480e-5
0.675, 6.469e-5
0.676, 6.458e-5
0.677, 6.448e-5
0.678, 6.438e-5
0.679, 6.429e-5
0.680, 6.420e-5
0.681, 6.410e-5
0.682, 6.401e-5
0.683, 6.391e-5
0.684, 6.380e-5
0.685, 6.370e-5
0.686, 6.360e-5
0.687, 6.349e-5
0.688, 6.339e-5
0.689, 6.330e-5
0.690, 6.320e-5
0.691, 6.310e-5
0.692, 6.301e-5
0.693, 6.291e-5
0.694, 6.281e-5
0.695, 6.271e-5
0.696, 6.261e-5
0.697, 6.250e-5
0.698, 6.239e-5
0.699, 6.228e-5
0.700, 6.217e-5
0.701, 6.208e-5
0.702, 6.200e-5
0.703, 6.192e-5
0.704, 6.185e-5
0.705, 6.178e-5
0.706, 6.170e-5
0.707, 6.162e-5
0.708, 6.153e-5
0.709, 6.144e-5
0.710, 6.135e-5
0.711, 6.126e-5
0.712, 6.117e-5
0.713, 6.108e-5
0.714, 6.099e-5
0.715, 6.090e-5
0.716, 6.081e-5
0.717, 6.072e-5
0.718, 6.064e-5
0.719, 6.055e-5
0.720, 6.047e-5
0.721, 6.039e-5
0.722, 6.031e-5
0.723, 6.022e-5
0.724, 6.013e-5
0.725, 6.004e-5
0.726, 5.995e-5
0.727, 5.986e-5
0.728, 5.977e-5
0.729, 5.969e-5
0.730, 5.960e-5
0.731, 5.953e-5
0.732, 5.945e-5
0.733, 5.938e-5
0.734, 5.930e-5
0.735, 5.923e-5
0.736, 5.915e-5
0.737, 5.907e-5
0.738, 5.899e-5
0.739, 5.891e-5
0.740, 5.884e-5
0.741, 5.876e-5
0.742, 5.868e-5
0.743, 5.861e-5
0.744, 5.853e-5
0.745, 5.846e-5
0.746, 5.839e-5
0.747, 5.832e-5
0.748, 5.825e-5
0.749, 5.818e-5
0.750, 5.811e-5
0.751, 5.803e-5
0.752, 5.796e-5
0.753, 5.788e-5
0.754, 5.780e-5
0.755, 5.772e-5
0.756, 5.763e-5
0.757, 5.754e-5
0.758, 5.745e-5
0.759, 5.737e-5
0.760, 5.729e-5
0.761, 5.722e-5
0.762, 5.715e-5
0.763, 5.709e-5
0.764, 5.703e-5
0.765, 5.697e-5
0.766, 5.691e-5
0.767, 5.685e-5
0.768, 5.678e-5
0.769, 5.671e-5
0.770, 5.665e-5
0.771, 5.658e-5
0.772, 5.651e-5
0.773, 5.645e-5
0.774, 5.638e-5
0.775, 5.631e-5
0.776, 5.625e-5
0.777, 5.618e-5
0.778, 5.611e-5
0.779, 5.605e-5
0.780, 5.598e-5
0.781, 5.592e-5
0.782, 5.586e-5
0.783, 5.579e-5
0.784, 5.573e-5
0.785, 5.567e-5
0.786, 5.561e-5
0.787, 5.554e-5
0.788, 5.547e-5
0.789, 5.541e-5
0.790, 5.534e-5
0.791, 5.527e-5
0.792, 5.521e-5
0.793, 5.514e-5
0.794, 5.507e-5
0.795, 5.500e-5
0.796, 5.493e-5
0.797, 5.487e-5
0.798, 5.480e-5
0.799, 5.473e-5
0.800, 5.459e-5
0.799, 5.445e-5
0.798, 5.432e-5
0.797, 5.420e-5
0.796, 5.409e-5
0.795, 5.400e-5
0.794, 5.391e-5
0.793, 5.382e-5
0.792, 5.373e-5
0.791, 5.364e-5
0.790, 5.356e-5
0.789, 5.347e-5
0.788, 5.339e-5
0.787, 5.331e-5
0.786, 5.324e-5
0.785, 5.316e-5
0.784, 5.308e-5
0.783, 5.299e-5
0.782, 5.291e-5
0.781, 5.282e-5
0.780, 5.273e-5
0.779, 5.264e-5
0.778, 5.255e-5
0.777, 5.247e-5
0.776, 5.239e-5
0.775, 5.232e-5
0.774, 5.225e-5
0.773, 5.218e-5
0.772, 5.212e-5
0.771, 5.207e-5
0.770, 5.200e-5
0.769, 5.194e-5
0.768, 5.187e-5
0.767, 5.181e-5
0.766, 5.174e-5
0.765, 5.167e-5
0.764, 5.160e-5
0.763, 5.154e-5
0.762, 5.147e-5
0.761, 5.141e-5
0.760, 5.134e-5
0.759, 5.128e-5
0.758, 5.121e-5
0.757, 5.115e-5
0.756, 5.108e-5
0.755, 5.102e-5
0.754, 5.096e-5
0.753, 5.089e-5
0.752, 5.083e-5
0.751, 5.077e-5
0.750, 5.070e-5
0.749, 5.064e-5
0.748, 5.057e-5
0.747, 5.051e-5
0.746, 5.044e-5
0.745, 5.037e-5
0.744, 5.031e-5
0.743, 5.024e-5
0.742, 5.017e-5
0.741, 5.010e-5
0.740, 5.004e-5
0.739, 4.997e-5
0.738, 4.991e-5
0.737, 4.984e-5
0.736, 4.978e-5
0.735, 4.972e-5
0.734, 4.967e-5
0.733, 4.961e-5
0.732, 4.955e-5
0.731, 4.949e-5
0.730, 4.944e-5
0.729, 4.938e-5
0.728, 4.932e-5
0.727, 4.926e-5
0.726, 4.921e-5
0.725, 4.915e-5
0.724, 4.910e-5
0.723, 4.904e-5
0.722, 4.898e-5
0.721, 4.893e-5
0.720, 4.887e-5
0.719, 4.881e-5
0.718, 4.876e-5
0.717, 4.870e-5
0.716, 4.865e-5
0.715, 4.860e-5
0.714, 4.855e-5
0.713, 4.849e-5
0.712, 4.844e-5
0.711, 4.839e-5
0.710, 4.833e-5
0.709, 4.828e-5
0.708, 4.822e-5
0.707, 4.817e-5
0.706, 4.811e-5
0.705, 4.805e-5
0.704, 4.799e-5
0.703, 4.793e-5
0.702, 4.787e-5
0.701, 4.781e-5
0.700, 4.775e-5
0.699, 4.769e-5
0.698, 4.763e-5
0.697, 4.757e-5
0.696, 4.752e-5
0.695, 4.746e-5
0.694, 4.741e-5
0.693, 4.736e-5
0.692, 4.732e-5
0.691, 4.728e-5
0.690, 4.723e-5
0.689, 4.719e-5
0.688, 4.714e-5
0.687, 4.710e-5
0.686, 4.705e-5
0.685, 4.700e-5
0.684, 4.695e-5
0.683, 4.690e-5
0.682, 4.685e-5
0.681, 4.680e-5
0.680, 4.675e-5
0.679, 4.670e-5
0.678, 4.665e-5
0.677, 4.660e-5
0.676, 4.655e-5
0.675, 4.649e-5
0.674, 4.644e-5
0.673, 4.639e-5
0.672, 4.633e-5
0.671, 4.628e-5
0.670, 4.623e-5
0.669, 4.619e-5
0.668, 4.614e-5
0.667, 4.609e-5
0.666, 4.604e-5
0.665, 4.600e-5
0.664, 4.595e-5
0.663, 4.590e-5
0.662, 4.586e-5
0.661, 4.581e-5
0.660, 4.576e-5
0.659, 4.571e-5
0.658, 4.565e-5
0.657, 4.560e-5
0.656, 4.555e-5
0.655, 4.550e-5
0.654, 4.545e-5
0.653, 4.539e-5
0.652, 4.534e-5
0.651, 4.528e-5
0.650, 4.522e-5
0.649, 4.517e-5
0.648, 4.512e-5
0.647, 4.507e-5
0.646, 4.502e-5
0.645, 4.498e-5
0.644, 4.494e-5
0.643, 4.490e-5
0.642, 4.486e-5
0.641, 4.483e-5
0.640, 4.480e-5
0.639, 4.476e-5
0.638, 4.473e-5
0.637, 4.469e-5
0.636, 4.466e-5
0.635, 4.464e-5
0.634, 4.462e-5
0.633, 4.459e-5
0.632, 4.455e-5
0.631, 4.450e-5
0.630, 4.445e-5
0.629, 4.440e-5
0.628, 4.435e-5
0.627, 4.430e-5
0.626, 4.425e-5
0.625, 4.420e-5
0.624, 4.414e-5
0.623, 4.409e-5
0.622, 4.404e-5
0.621, 4.399e-5
0.620, 4.394e-5
0.619, 4.390e-5
0.618, 4.385e-5
0.617, 4.380e-5
0.616, 4.376e-5
0.615, 4.371e-5
0.614, 4.366e-5
0.613, 4.362e-5
0.612, 4.358e-5
0.611, 4.353e-5
0.610, 4.349e-5
0.609, 4.344e-5
0.608, 4.339e-5
0.607, 4.334e-5
0.606, 4.329e-5
0.605, 4.324e-5
0.604, 4.320e-5
0.603, 4.314e-5
0.602, 4.309e-5
0.601, 4.304e-5
0.600, 4.298e-5
0.599, 4.292e-5
0.598, 4.287e-5
0.597, 4.281e-5
0.596, 4.275e-5
0.595, 4.270e-5
0.594, 4.265e-5
0.593, 4.260e-5
0.592, 4.255e-5
0.591, 4.250e-5
0.590, 4.246e-5
0.589, 4.242e-5
0.588, 4.238e-5
0.587, 4.234e-5
0.586, 4.230e-5
0.585, 4.226e-5
0.584, 4.222e-5
0.583, 4.217e-5
0.582, 4.213e-5
0.581, 4.208e-5
0.580, 4.203e-5
0.579, 4.198e-5
0.578, 4.193e-5
0.577, 4.189e-5
0.576, 4.184e-5
0.575, 4.178e-5
0.574, 4.171e-5
0.573, 4.163e-5
0.572, 4.154e-5
0.571, 4.147e-5
0.570, 4.141e-5
0.569, 4.136e-5
0.568, 4.131e-5
0.567, 4.127e-5
0.566, 4.122e-5
0.565, 4.118e-5
0.564, 4.113e-5
0.563, 4.109e-5
0.562, 4.105e-5
0.561, 4.100e-5
0.560, 4.095e-5
0.559, 4.090e-5
0.558, 4.085e-5
0.557, 4.080e-5
0.556, 4.076e-5
0.555, 4.071e-5
0.554, 4.066e-5
0.553, 4.061e-5
0.552, 4.055e-5
0.551, 4.050e-5
0.550, 4.045e-5
0.549, 4.039e-5
0.548, 4.034e-5
0.547, 4.029e-5
0.546, 4.024e-5
0.545, 4.018e-5
0.544, 4.013e-5
0.543, 4.009e-5
0.542, 4.004e-5
0.541, 3.999e-5
0.540, 3.995e-5
0.539, 3.990e-5
0.538, 3.986e-5
0.537, 3.981e-5
0.536, 3.977e-5
0.535, 3.972e-5
0.534, 3.967e-5
0.533, 3.962e-5
0.532, 3.957e-5
0.531, 3.952e-5
0.530, 3.947e-5
0.529, 3.942e-5
0.528, 3.937e-5
0.527, 3.932e-5
0.526, 3.927e-5
0.525, 3.921e-5
0.524, 3.916e-5
0.523, 3.911e-5
0.522, 3.906e-5
0.521, 3.900e-5
0.520, 3.895e-5
0.519, 3.890e-5
0.518, 3.885e-5
0.517, 3.879e-5
0.516, 3.874e-5
0.515, 3.869e-5
0.514, 3.864e-5
0.513, 3.859e-5
0.512, 3.854e-5
0.511, 3.849e-5
0.510, 3.844e-5
0.509, 3.839e-5
0.508, 3.833e-5
0.507, 3.827e-5
0.506, 3.822e-5
0.505, 3.816e-5
0.504, 3.810e-5
0.503, 3.803e-5
0.502, 3.797e-5
0.501, 3.791e-5
0.500, 3.785e-5
0.499, 3.779e-5
0.498, 3.774e-5
0.497, 3.769e-5
0.496, 3.764e-5
0.495, 3.759e-5
0.494, 3.755e-5
0.493, 3.751e-5
0.492, 3.746e-5
0.491, 3.742e-5
0.490, 3.737e-5
0.489, 3.732e-5
0.488, 3.727e-5
0.487, 3.721e-5
0.486, 3.716e-5
0.485, 3.710e-5
0.484, 3.705e-5
0.483, 3.699e-5
0.482, 3.693e-5
0.481, 3.688e-5
0.480, 3.681e-5
0.479, 3.675e-5
0.478, 3.669e-5
0.477, 3.663e-5
0.476, 3.657e-5
0.475, 3.651e-5
0.474, 3.645e-5
0.473, 3.640e-5
0.472, 3.634e-5
0.471, 3.628e-5
0.470, 3.622e-5
0.469, 3.616e-5
0.468, 3.611e-5
0.467, 3.605e-5
0.466, 3.598e-5
0.465, 3.592e-5
0.464, 3.586e-5
0.463, 3.579e-5
0.462, 3.573e-5
0.461, 3.566e-5
0.460, 3.560e-5
0.459, 3.553e-5
0.458, 3.546e-5
0.457, 3.539e-5
0.456, 3.533e-5
0.455, 3.526e-5
0.454, 3.520e-5
0.453, 3.514e-5
0.452, 3.508e-5
0.451, 3.503e-5
0.450, 3.497e-5
0.449, 3.490e-5
0.448, 3.484e-5
0.447, 3.478e-5
0.446, 3.471e-5
0.445, 3.464e-5
0.444, 3.457e-5
0.443, 3.450e-5
0.442, 3.443e-5
0.441, 3.436e-5
0.440, 3.429e-5
0.439, 3.422e-5
0.438, 3.415e-5
0.437, 3.408e-5
0.436, 3.401e-5
0.435, 3.395e-5
0.434, 3.388e-5
0.433, 3.381e-5
0.432, 3.374e-5
0.431, 3.367e-5
0.430, 3.359e-5
0.429, 3.352e-5
0.428, 3.344e-5
0.427, 3.335e-5
0.426, 3.327e-5
0.425, 3.318e-5
0.424, 3.310e-5
0.423, 3.301e-5
0.422, 3.293e-5
0.421, 3.285e-5
0.420, 3.278e-5
0.419, 3.271e-5
0.418, 3.265e-5
0.417, 3.258e-5
0.416, 3.252e-5
0.415, 3.245e-5
0.414, 3.237e-5
0.413, 3.229e-5
0.412, 3.221e-5
0.411, 3.214e-5
0.410, 3.206e-5
0.409, 3.198e-5
0.408, 3.190e-5
0.407, 3.181e-5
0.406, 3.172e-5
0.405, 3.164e-5
0.404, 3.155e-5
0.403, 3.147e-5
0.402, 3.139e-5
0.401, 3.131e-5
0.400, 3.122e-5
0.399, 3.113e-5
0.398, 3.104e-5
0.397, 3.095e-5
0.396, 3.085e-5
0.395, 3.075e-5
0.394, 3.065e-5
0.393, 3.055e-5
0.392, 3.045e-5
0.391, 3.036e-5
0.390, 3.027e-5
0.389, 3.018e-5
0.388, 3.009e-5
0.387, 3.000e-5
0.386, 2.990e-5
0.385, 2.981e-5
0.384, 2.971e-5
0.383, 2.961e-5
0.382, 2.951e-5
0.381, 2.940e-5
0.380, 2.930e-5
0.379, 2.919e-5
0.378, 2.909e-5
0.377, 2.900e-5
0.376, 2.889e-5
0.375, 2.879e-5
0.374, 2.868e-5
0.373, 2.857e-5
0.372, 2.845e-5
0.371, 2.833e-5
0.370, 2.820e-5
0.369, 2.809e-5
0.368, 2.798e-5
0.367, 2.787e-5
0.366, 2.778e-5
0.365, 2.768e-5
0.364, 2.757e-5
0.363, 2.746e-5
0.362, 2.734e-5
0.361, 2.722e-5
0.360, 2.709e-5
0.359, 2.696e-5
0.358, 2.684e-5
0.357, 2.671e-5
0.356, 2.659e-5
0.355, 2.646e-5
0.354, 2.633e-5
0.353, 2.619e-5
0.352, 2.605e-5
0.351, 2.591e-5
0.350, 2.576e-5
0.349, 2.562e-5
0.348, 2.547e-5
0.347, 2.534e-5
0.346, 2.520e-5
0.345, 2.507e-5
0.344, 2.492e-5
0.343, 2.477e-5
0.342, 2.462e-5
0.341, 2.446e-5
0.340, 2.430e-5
0.339, 2.415e-5
0.338, 2.399e-5
0.337, 2.382e-5
0.336, 2.364e-5
0.335, 2.345e-5
0.334, 2.327e-5
0.333, 2.309e-5
0.332, 2.293e-5
0.331, 2.278e-5
0.330, 2.261e-5
0.329, 2.244e-5
0.328, 2.226e-5
0.327, 2.207e-5
0.326, 2.188e-5
0.325, 2.169e-5
0.324, 2.149e-5
0.323, 2.129e-5
0.322, 2.109e-5
0.321, 2.088e-5
0.320, 2.067e-5
0.319, 2.047e-5
0.318, 2.027e-5
0.317, 2.006e-5
0.316, 1.985e-5
0.315, 1.963e-5
0.314, 1.941e-5
0.313, 1.917e-5
0.312, 1.893e-5
0.311, 1.866e-5
0.310, 1.840e-5
0.309, 1.814e-5
0.308, 1.789e-5
0.307, 1.766e-5
0.306, 1.743e-5
0.305, 1.719e-5
0.304, 1.695e-5
0.303, 1.669e-5
0.302, 1.641e-5
0.301, 1.611e-5
0.300, 1.582e-5
0.299, 1.553e-5
0.298, 1.525e-5
0.297, 1.497e-5
0.296, 1.467e-5
0.295, 1.435e-5
0.294, 1.401e-5
0.293, 1.367e-5
0.292, 1.334e-5
0.291, 1.302e-5
0.290, 1.270e-5
0.289, 1.238e-5
0.288, 1.205e-5
0.287, 1.169e-5
0.286, 1.132e-5
0.285, 1.095e-5
0.284, 1.059e-5
0.283, 1.022e-5
0.282, 9.844e-6
0.281, 9.451e-6
0.280, 9.042e-6
0.279, 8.627e-6
0.278, 8.220e-6
0.277, 7.818e-6
0.276, 7.410e-6
0.275, 6.988e-6
0.274, 6.550e-6
0.273, 6.103e-6
0.272, 5.655e-6
0.271, 5.199e-6
0.270, 4.730e-6
0.269, 4.249e-6
0.268, 3.764e-6
0.267, 3.286e-6
0.266, 2.812e-6
0.265, 2.333e-6
0.264, 1.843e-6
0.263, 1.339e-6
0.262, 8.210e-7
0.261, 2.917e-7
0.260, -2.535e-7
0.259, -8.109e-7
0.258, -1.376e-6
0.257, -1.943e-6
0.256, -2.516e-6
0.255, -3.094e-6
0.254, -3.685e-6
0.253, -4.286e-6
0.252, -4.897e-6
0.251, -5.515e-6
0.250, -6.141e-6
0.249, -6.769e-6
0.248, -7.405e-6
0.247, -8.052e-6
0.246, -8.714e-6
0.245, -9.391e-6
0.244, -1.008e-5
0.243, -1.078e-5
0.242, -1.148e-5
0.241, -1.218e-5
0.240, -1.289e-5
0.239, -1.361e-5
0.238, -1.434e-5
0.237, -1.509e-5
0.236, -1.584e-5
0.235, -1.660e-5
0.234, -1.736e-5
0.233, -1.812e-5
0.232, -1.889e-5
0.231, -1.968e-5
0.230, -2.048e-5
0.229, -2.127e-5
0.228, -2.208e-5
0.227, -2.290e-5
0.226, -2.373e-5
0.225, -2.457e-5
0.224, -2.542e-5
0.223, -2.627e-5
0.222, -2.713e-5
0.221, -2.800e-5
0.220, -2.888e-5
0.219, -2.977e-5
0.218, -3.067e-5
0.217, -3.156e-5
0.216, -3.246e-5
0.215, -3.336e-5
0.214, -3.428e-5
0.213, -3.521e-5
0.212, -3.613e-5
0.211, -3.705e-5
0.210, -3.796e-5
0.209, -3.886e-5
0.208, -3.978e-5
0.207, -4.072e-5
0.206, -4.169e-5
0.205, -4.268e-5
0.204, -4.368e-5
0.203, -4.467e-5
0.202, -4.566e-5
0.201, -4.663e-5
0.200, -4.760e-5
0.199, -4.857e-5
0.198, -4.955e-5
0.197, -5.054e-5
0.196, -5.153e-5
0.195, -5.253e-5
0.194, -5.352e-5
0.193, -5.451e-5
0.192, -5.549e-5
0.191, -5.648e-5
0.190, -5.746e-5
0.189, -5.845e-5
0.188, -5.943e-5
0.187, -6.042e-5
0.186, -6.141e-5
0.185, -6.241e-5
0.184, -6.340e-5
0.183, -6.440e-5
0.182, -6.538e-5
0.181, -6.637e-5
0.180, -6.735e-5
0.179, -6.833e-5
0.178, -6.930e-5
0.177, -7.027e-5
0.176, -7.123e-5
0.175, -7.219e-5
0.174, -7.316e-5
0.173, -7.412e-5
0.172, -7.507e-5
0.171, -7.600e-5
0.170, -7.693e-5
0.169, -7.784e-5
0.168, -7.875e-5
0.167, -7.966e-5
0.166, -8.056e-5
0.165, -8.147e-5
0.164, -8.237e-5
0.163, -8.326e-5
0.162, -8.415e-5
0.161, -8.502e-5
0.160, -8.588e-5
0.159, -8.674e-5
0.158, -8.759e-5
0.157, -8.843e-5
0.156, -8.926e-5
0.155, -9.007e-5
0.154, -9.088e-5
0.153, -9.168e-5
0.152, -9.247e-5
0.151, -9.325e-5
0.150, -9.402e-5
0.149, -9.477e-5
0.148, -9.550e-5
0.147, -9.622e-5
0.146, -9.693e-5
0.145, -9.764e-5
0.144, -9.833e-5
0.143, -9.902e-5
0.142, -9.969e-5
0.141, -1.003e-4
0.140, -1.010e-4
0.139, -1.016e-4
0.138, -1.022e-4
0.137, -1.029e-4
0.136, -1.035e-4
0.135, -1.040e-4
0.134, -1.046e-4
0.133, -1.052e-4
0.132, -1.057e-4
0.131, -1.063e-4
0.130, -1.068e-4
0.129, -1.073e-4
0.128, -1.078e-4
0.127, -1.083e-4
0.126, -1.087e-4
0.125, -1.092e-4
0.124, -1.096e-4
0.123, -1.100e-4
0.122, -1.105e-4
0.121, -1.109e-4
0.120, -1.113e-4
0.119, -1.116e-4
0.118, -1.120e-4
0.117, -1.124e-4
0.116, -1.127e-4
0.115, -1.130e-4
0.114, -1.134e-4
0.113, -1.137e-4
0.112, -1.139e-4
0.111, -1.142e-4
0.110, -1.144e-4
0.109, -1.147e-4
0.108, -1.149e-4
0.107, -1.152e-4
0.106, -1.154e-4
0.105, -1.156e-4
0.104, -1.158e-4
0.103, -1.160e-4
0.102, -1.161e-4
0.101, -1.163e-4
0.100, -1.164e-4
0.099, -1.166e-4
0.098, -1.167e-4
0.097, -1.168e-4
0.096, -1.169e-4
0.095, -1.170e-4
0.094, -1.171e-4
0.093, -1.172e-4
0.092, -1.173e-4
0.091, -1.173e-4
0.090, -1.174e-4
0.089, -1.174e-4
0.088, -1.175e-4
0.087, -1.175e-4
0.086, -1.175e-4
0.085, -1.175e-4
0.084, -1.175e-4
0.083, -1.175e-4
0.082, -1.175e-4
0.081, -1.175e-4
0.080, -1.175e-4
0.079, -1.174e-4
0.078, -1.174e-4
0.077, -1.173e-4
0.076, -1.173e-4
0.075, -1.172e-4
0.074, -1.171e-4
0.073, -1.171e-4
0.072, -1.170e-4
0.071, -1.169e-4
0.070, -1.168e-4
0.069, -1.167e-4
0.068, -1.166e-4
0.067, -1.165e-4
0.066, -1.164e-4
0.065, -1.163e-4
0.064, -1.162e-4
0.063, -1.161e-4
0.062, -1.159e-4
0.061, -1.158e-4
0.060, -1.157e-4
0.059, -1.155e-4
0.058, -1.154e-4
0.057, -1.152e-4
0.056, -1.151e-4
0.055, -1.149e-4
0.054, -1.147e-4
0.053, -1.146e-4
0.052, -1.144e-4
0.051, -1.142e-4
0.050, -1.141e-4
0.049, -1.139e-4
0.048, -1.137e-4
0.047, -1.136e-4
0.046, -1.134e-4
0.045, -1.132e-4
0.044, -1.130e-4
0.043, -1.128e-4
0.042, -1.126e-4
0.041, -1.124e-4
0.040, -1.122e-4
0.039, -1.121e-4
0.038, -1.119e-4
0.037, -1.117e-4
0.036, -1.115e-4
0.035, -1.113e-4
0.034, -1.111e-4
0.033, -1.109e-4
0.032, -1.107e-4
0.031, -1.105e-4
0.030, -1.102e-4
0.029, -1.100e-4
0.028, -1.098e-4
0.027, -1.096e-4
0.026, -1.094e-4
0.025, -1.092e-4
0.024, -1.090e-4
0.023, -1.088e-4
0.022, -1.086e-4
0.021, -1.084e-4
0.020, -1.082e-4
0.019, -1.079e-4
0.018, -1.077e-4
0.017, -1.075e-4
0.016, -1.073e-4
0.015, -1.071e-4
0.014, -1.068e-4
0.013, -1.066e-4
0.012, -1.064e-4
0.011, -1.062e-4
0.010, -1.060e-4
0.009, -1.058e-4
0.008, -1.055e-4
0.007, -1.053e-4
0.006, -1.051e-4
0.005, -1.049e-4
0.004, -1.047e-4
0.003, -1.045e-4
0.002, -1.043e-4
0.001, -1.041e-4
0.000, -1.038e-4
-0.001, -1.036e-4
-0.002, -1.034e-4
-0.003, -1.032e-4
-0.004, -1.030e-4
-0.005, -1.027e-4
-0.006, -1.025e-4
-0.007, -1.023e-4
-0.008, -1.021e-4
-0.009, -1.019e-4
-0.010, -1.017e-4
-0.011, -1.015e-4
-0.012, -1.013e-4
-0.013, -1.010e-4
-0.014, -1.008e-4
-0.015, -1.006e-4
-0.016, -1.004e-4
-0.017, -1.002e-4
-0.018, -9.996e-5
-0.019, -9.975e-5
-0.020, -9.954e-5
-0.021, -9.934e-5
-0.022, -9.915e-5
-0.023, -9.896e-5
-0.024, -9.876e-5
-0.025, -9.855e-5
-0.026, -9.832e-5
-0.027, -9.810e-5
-0.028, -9.788e-5
-0.029, -9.768e-5
-0.030, -9.747e-5
-0.031, -9.727e-5
-0.032, -9.706e-5
-0.033, -9.686e-5
-0.034, -9.667e-5
-0.035, -9.648e-5
-0.036, -9.629e-5
-0.037, -9.608e-5
-0.038, -9.587e-5
-0.039, -9.567e-5
-0.040, -9.547e-5
-0.041, -9.528e-5
-0.042, -9.508e-5
-0.043, -9.488e-5
-0.044, -9.468e-5
-0.045, -9.448e-5
-0.046, -9.430e-5
-0.047, -9.412e-5
-0.048, -9.393e-5
-0.049, -9.372e-5
-0.050, -9.351e-5
-0.051, -9.329e-5
-0.052, -9.309e-5
-0.053, -9.290e-5
-0.054, -9.271e-5
-0.055, -9.251e-5
-0.056, -9.232e-5
-0.057, -9.213e-5
-0.058, -9.194e-5
-0.059, -9.176e-5
-0.060, -9.157e-5
-0.061, -9.137e-5
-0.062, -9.117e-5
-0.063, -9.097e-5
-0.064, -9.077e-5
-0.065, -9.059e-5
-0.066, -9.040e-5
-0.067, -9.022e-5
-0.068, -9.003e-5
-0.069, -8.984e-5
-0.070, -8.966e-5
-0.071, -8.948e-5
-0.072, -8.932e-5
-0.073, -8.915e-5
-0.074, -8.897e-5
-0.075, -8.876e-5
-0.076, -8.856e-5
-0.077, -8.836e-5
-0.078, -8.817e-5
-0.079, -8.800e-5
-0.080, -8.782e-5
-0.081, -8.765e-5
-0.082, -8.747e-5
-0.083, -8.728e-5
-0.084, -8.711e-5
-0.085, -8.694e-5
-0.086, -8.677e-5
-0.087, -8.659e-5
-0.088, -8.641e-5
-0.089, -8.621e-5
-0.090, -8.602e-5
-0.091, -8.584e-5
-0.092, -8.567e-5
-0.093, -8.551e-5
-0.094, -8.534e-5
-0.095, -8.516e-5
-0.096, -8.498e-5
-0.097, -8.481e-5
-0.098, -8.464e-5
-0.099, -8.449e-5
-0.100, -8.433e-5
-0.101, -8.417e-5
-0.102, -8.398e-5
-0.103, -8.379e-5
-0.104, -8.360e-5
-0.105, -8.342e-5
-0.106, -8.326e-5
-0.107, -8.310e-5
-0.108, -8.294e-5
-0.109, -8.277e-5
-0.110, -8.260e-5
-0.111, -8.244e-5
-0.112, -8.227e-5
-0.113, -8.212e-5
-0.114, -8.196e-5
-0.115, -8.181e-5
-0.116, -8.164e-5
-0.117, -8.147e-5
-0.118, -8.129e-5
-0.119, -8.112e-5
-0.120, -8.097e-5
-0.121, -8.082e-5
-0.122, -8.068e-5
-0.123, -8.053e-5
-0.124, -8.037e-5
-0.125, -8.020e-5
-0.126, -8.004e-5
-0.127, -7.988e-5
-0.128, -7.973e-5
-0.129, -7.960e-5
-0.130, -7.946e-5
-0.131, -7.932e-5
-0.132, -7.917e-5
-0.133, -7.900e-5
-0.134, -7.883e-5
-0.135, -7.867e-5
-0.136, -7.851e-5
-0.137, -7.836e-5
-0.138, -7.821e-5
-0.139, -7.807e-5
-0.140, -7.792e-5
-0.141, -7.778e-5
-0.142, -7.763e-5
-0.143, -7.748e-5
-0.144, -7.734e-5
-0.145, -7.720e-5
-0.146, -7.706e-5
-0.147, -7.692e-5
-0.148, -7.678e-5
-0.149, -7.663e-5
-0.150, -7.649e-5
-0.151, -7.634e-5
-0.152, -7.620e-5
-0.153, -7.606e-5
-0.154, -7.592e-5
-0.155, -7.578e-5
-0.156, -7.564e-5
-0.157, -7.549e-5
-0.158, -7.535e-5
-0.159, -7.520e-5
-0.160, -7.507e-5
-0.161, -7.494e-5
-0.162, -7.482e-5
-0.163, -7.470e-5
-0.164, -7.458e-5
-0.165, -7.445e-5
-0.166, -7.431e-5
-0.167, -7.415e-5
-0.168, -7.400e-5
-0.169, -7.385e-5
-0.170, -7.370e-5
-0.171, -7.357e-5
-0.172, -7.344e-5
-0.173, -7.331e-5
-0.174, -7.317e-5
-0.175, -7.304e-5
-0.176, -7.290e-5
-0.177, -7.277e-5
-0.178, -7.264e-5
-0.179, -7.251e-5
-0.180, -7.239e-5
-0.181, -7.227e-5
-0.182, -7.215e-5
-0.183, -7.203e-5
-0.184, -7.189e-5
-0.185, -7.176e-5
-0.186, -7.162e-5
-0.187, -7.148e-5
-0.188, -7.135e-5
-0.189, -7.122e-5
-0.190, -7.110e-5
-0.191, -7.098e-5
-0.192, -7.086e-5
-0.193, -7.073e-5
-0.194, -7.060e-5
-0.195, -7.047e-5
-0.196, -7.035e-5
-0.197, -7.023e-5
-0.198, -7.011e-5
-0.199, -7.000e-5
