Dec. 18, 2021   18:29:05
Cyclic Voltammetry
File: c:\gtl 2\cp\rib,pn\vb2\surface area\ferric characterization\glut-zno-cpe-50.txt
Data Source:  Experiment
Instrument Model:  CHI760D
Data Proc:  Smoothing
Header: 
Note: 

Init E (V) = -0.2
High E (V) = 0.8
Low E (V) = -0.2
Init P/N = P
Scan Rate (V/s) = 0.05
Segment = 2
Sample Interval (V) = 0.001
Quiet Time (sec) = 2
Sensitivity (A/V) = 0.001

Segment 1:
Ep = 0.304V
Eh = 0.199V
ip = 1.223e-4A
Ah = 2.647e-4C

Segment 2:
Ep = 0.106V
Eh = 0.202V
ip = -1.321e-4A
Ah = -2.650e-4C

Potential/V, Current/A

-0.200, -6.868e-5
-0.199, -6.792e-5
-0.198, -6.726e-5
-0.197, -6.669e-5
-0.196, -6.625e-5
-0.195, -6.587e-5
-0.194, -6.553e-5
-0.193, -6.518e-5
-0.192, -6.485e-5
-0.191, -6.452e-5
-0.190, -6.419e-5
-0.189, -6.385e-5
-0.188, -6.353e-5
-0.187, -6.321e-5
-0.186, -6.292e-5
-0.185, -6.263e-5
-0.184, -6.235e-5
-0.183, -6.206e-5
-0.182, -6.177e-5
-0.181, -6.149e-5
-0.180, -6.121e-5
-0.179, -6.094e-5
-0.178, -6.067e-5
-0.177, -6.042e-5
-0.176, -6.018e-5
-0.175, -5.994e-5
-0.174, -5.970e-5
-0.173, -5.945e-5
-0.172, -5.920e-5
-0.171, -5.895e-5
-0.170, -5.870e-5
-0.169, -5.846e-5
-0.168, -5.823e-5
-0.167, -5.800e-5
-0.166, -5.778e-5
-0.165, -5.757e-5
-0.164, -5.737e-5
-0.163, -5.715e-5
-0.162, -5.693e-5
-0.161, -5.671e-5
-0.160, -5.650e-5
-0.159, -5.629e-5
-0.158, -5.609e-5
-0.157, -5.588e-5
-0.156, -5.567e-5
-0.155, -5.547e-5
-0.154, -5.528e-5
-0.153, -5.510e-5
-0.152, -5.490e-5
-0.151, -5.470e-5
-0.150, -5.450e-5
-0.149, -5.430e-5
-0.148, -5.411e-5
-0.147, -5.392e-5
-0.146, -5.375e-5
-0.145, -5.356e-5
-0.144, -5.337e-5
-0.143, -5.319e-5
-0.142, -5.301e-5
-0.141, -5.283e-5
-0.140, -5.267e-5
-0.139, -5.250e-5
-0.138, -5.233e-5
-0.137, -5.214e-5
-0.136, -5.196e-5
-0.135, -5.179e-5
-0.134, -5.162e-5
-0.133, -5.146e-5
-0.132, -5.130e-5
-0.131, -5.114e-5
-0.130, -5.097e-5
-0.129, -5.080e-5
-0.128, -5.064e-5
-0.127, -5.049e-5
-0.126, -5.035e-5
-0.125, -5.021e-5
-0.124, -5.006e-5
-0.123, -4.990e-5
-0.122, -4.973e-5
-0.121, -4.956e-5
-0.120, -4.940e-5
-0.119, -4.924e-5
-0.118, -4.910e-5
-0.117, -4.895e-5
-0.116, -4.881e-5
-0.115, -4.866e-5
-0.114, -4.850e-5
-0.113, -4.835e-5
-0.112, -4.821e-5
-0.111, -4.807e-5
-0.110, -4.794e-5
-0.109, -4.781e-5
-0.108, -4.768e-5
-0.107, -4.754e-5
-0.106, -4.740e-5
-0.105, -4.726e-5
-0.104, -4.712e-5
-0.103, -4.699e-5
-0.102, -4.687e-5
-0.101, -4.675e-5
-0.100, -4.662e-5
-0.099, -4.649e-5
-0.098, -4.635e-5
-0.097, -4.621e-5
-0.096, -4.606e-5
-0.095, -4.592e-5
-0.094, -4.578e-5
-0.093, -4.566e-5
-0.092, -4.554e-5
-0.091, -4.543e-5
-0.090, -4.532e-5
-0.089, -4.520e-5
-0.088, -4.508e-5
-0.087, -4.494e-5
-0.086, -4.479e-5
-0.085, -4.465e-5
-0.084, -4.451e-5
-0.083, -4.439e-5
-0.082, -4.427e-5
-0.081, -4.415e-5
-0.080, -4.404e-5
-0.079, -4.392e-5
-0.078, -4.380e-5
-0.077, -4.368e-5
-0.076, -4.356e-5
-0.075, -4.343e-5
-0.074, -4.332e-5
-0.073, -4.321e-5
-0.072, -4.310e-5
-0.071, -4.299e-5
-0.070, -4.289e-5
-0.069, -4.278e-5
-0.068, -4.266e-5
-0.067, -4.254e-5
-0.066, -4.242e-5
-0.065, -4.229e-5
-0.064, -4.218e-5
-0.063, -4.207e-5
-0.062, -4.196e-5
-0.061, -4.186e-5
-0.060, -4.175e-5
-0.059, -4.165e-5
-0.058, -4.154e-5
-0.057, -4.142e-5
-0.056, -4.131e-5
-0.055, -4.119e-5
-0.054, -4.108e-5
-0.053, -4.097e-5
-0.052, -4.087e-5
-0.051, -4.077e-5
-0.050, -4.067e-5
-0.049, -4.057e-5
-0.048, -4.048e-5
-0.047, -4.039e-5
-0.046, -4.029e-5
-0.045, -4.018e-5
-0.044, -4.006e-5
-0.043, -3.994e-5
-0.042, -3.982e-5
-0.041, -3.970e-5
-0.040, -3.959e-5
-0.039, -3.949e-5
-0.038, -3.939e-5
-0.037, -3.930e-5
-0.036, -3.920e-5
-0.035, -3.910e-5
-0.034, -3.899e-5
-0.033, -3.889e-5
-0.032, -3.878e-5
-0.031, -3.868e-5
-0.030, -3.858e-5
-0.029, -3.849e-5
-0.028, -3.840e-5
-0.027, -3.831e-5
-0.026, -3.823e-5
-0.025, -3.815e-5
-0.024, -3.807e-5
-0.023, -3.798e-5
-0.022, -3.789e-5
-0.021, -3.779e-5
-0.020, -3.769e-5
-0.019, -3.758e-5
-0.018, -3.748e-5
-0.017, -3.737e-5
-0.016, -3.727e-5
-0.015, -3.716e-5
-0.014, -3.706e-5
-0.013, -3.696e-5
-0.012, -3.687e-5
-0.011, -3.677e-5
-0.010, -3.667e-5
-0.009, -3.657e-5
-0.008, -3.646e-5
-0.007, -3.636e-5
-0.006, -3.625e-5
-0.005, -3.615e-5
-0.004, -3.605e-5
-0.003, -3.596e-5
-0.002, -3.587e-5
-0.001, -3.578e-5
0.000, -3.569e-5
0.001, -3.560e-5
0.002, -3.551e-5
0.003, -3.541e-5
0.004, -3.530e-5
0.005, -3.519e-5
0.006, -3.507e-5
0.007, -3.494e-5
0.008, -3.483e-5
0.009, -3.472e-5
0.010, -3.461e-5
0.011, -3.452e-5
0.012, -3.442e-5
0.013, -3.432e-5
0.014, -3.421e-5
0.015, -3.411e-5
0.016, -3.400e-5
0.017, -3.389e-5
0.018, -3.378e-5
0.019, -3.367e-5
0.020, -3.357e-5
0.021, -3.347e-5
0.022, -3.337e-5
0.023, -3.328e-5
0.024, -3.318e-5
0.025, -3.307e-5
0.026, -3.296e-5
0.027, -3.284e-5
0.028, -3.271e-5
0.029, -3.259e-5
0.030, -3.247e-5
0.031, -3.235e-5
0.032, -3.223e-5
0.033, -3.212e-5
0.034, -3.201e-5
0.035, -3.189e-5
0.036, -3.178e-5
0.037, -3.165e-5
0.038, -3.153e-5
0.039, -3.140e-5
0.040, -3.128e-5
0.041, -3.116e-5
0.042, -3.104e-5
0.043, -3.093e-5
0.044, -3.083e-5
0.045, -3.072e-5
0.046, -3.061e-5
0.047, -3.048e-5
0.048, -3.034e-5
0.049, -3.019e-5
0.050, -3.004e-5
0.051, -2.989e-5
0.052, -2.974e-5
0.053, -2.961e-5
0.054, -2.947e-5
0.055, -2.933e-5
0.056, -2.919e-5
0.057, -2.904e-5
0.058, -2.888e-5
0.059, -2.874e-5
0.060, -2.860e-5
0.061, -2.846e-5
0.062, -2.833e-5
0.063, -2.818e-5
0.064, -2.802e-5
0.065, -2.785e-5
0.066, -2.768e-5
0.067, -2.750e-5
0.068, -2.733e-5
0.069, -2.716e-5
0.070, -2.699e-5
0.071, -2.682e-5
0.072, -2.664e-5
0.073, -2.646e-5
0.074, -2.629e-5
0.075, -2.612e-5
0.076, -2.596e-5
0.077, -2.579e-5
0.078, -2.560e-5
0.079, -2.539e-5
0.080, -2.518e-5
0.081, -2.496e-5
0.082, -2.475e-5
0.083, -2.453e-5
0.084, -2.432e-5
0.085, -2.410e-5
0.086, -2.389e-5
0.087, -2.368e-5
0.088, -2.346e-5
0.089, -2.324e-5
0.090, -2.300e-5
0.091, -2.274e-5
0.092, -2.249e-5
0.093, -2.223e-5
0.094, -2.197e-5
0.095, -2.171e-5
0.096, -2.146e-5
0.097, -2.121e-5
0.098, -2.096e-5
0.099, -2.070e-5
0.100, -2.041e-5
0.101, -2.010e-5
0.102, -1.979e-5
0.103, -1.949e-5
0.104, -1.918e-5
0.105, -1.888e-5
0.106, -1.857e-5
0.107, -1.825e-5
0.108, -1.793e-5
0.109, -1.758e-5
0.110, -1.724e-5
0.111, -1.689e-5
0.112, -1.653e-5
0.113, -1.617e-5
0.114, -1.580e-5
0.115, -1.541e-5
0.116, -1.501e-5
0.117, -1.460e-5
0.118, -1.420e-5
0.119, -1.379e-5
0.120, -1.337e-5
0.121, -1.294e-5
0.122, -1.251e-5
0.123, -1.206e-5
0.124, -1.161e-5
0.125, -1.115e-5
0.126, -1.067e-5
0.127, -1.018e-5
0.128, -9.676e-6
0.129, -9.169e-6
0.130, -8.653e-6
0.131, -8.130e-6
0.132, -7.598e-6
0.133, -7.057e-6
0.134, -6.509e-6
0.135, -5.949e-6
0.136, -5.373e-6
0.137, -4.786e-6
0.138, -4.188e-6
0.139, -3.581e-6
0.140, -2.970e-6
0.141, -2.352e-6
0.142, -1.719e-6
0.143, -1.071e-6
0.144, -4.060e-7
0.145, 2.719e-7
0.146, 9.513e-7
0.147, 1.631e-6
0.148, 2.318e-6
0.149, 3.015e-6
0.150, 3.730e-6
0.151, 4.470e-6
0.152, 5.226e-6
0.153, 5.990e-6
0.154, 6.767e-6
0.155, 7.548e-6
0.156, 8.338e-6
0.157, 9.152e-6
0.158, 9.976e-6
0.159, 1.081e-5
0.160, 1.165e-5
0.161, 1.250e-5
0.162, 1.337e-5
0.163, 1.426e-5
0.164, 1.516e-5
0.165, 1.605e-5
0.166, 1.695e-5
0.167, 1.786e-5
0.168, 1.879e-5
0.169, 1.973e-5
0.170, 2.068e-5
0.171, 2.165e-5
0.172, 2.262e-5
0.173, 2.361e-5
0.174, 2.462e-5
0.175, 2.562e-5
0.176, 2.663e-5
0.177, 2.764e-5
0.178, 2.866e-5
0.179, 2.970e-5
0.180, 3.075e-5
0.181, 3.182e-5
0.182, 3.289e-5
0.183, 3.397e-5
0.184, 3.505e-5
0.185, 3.615e-5
0.186, 3.724e-5
0.187, 3.834e-5
0.188, 3.944e-5
0.189, 4.056e-5
0.190, 4.168e-5
0.191, 4.281e-5
0.192, 4.396e-5
0.193, 4.510e-5
0.194, 4.625e-5
0.195, 4.740e-5
0.196, 4.856e-5
0.197, 4.973e-5
0.198, 5.091e-5
0.199, 5.210e-5
0.200, 5.329e-5
0.201, 5.448e-5
0.202, 5.568e-5
0.203, 5.688e-5
0.204, 5.810e-5
0.205, 5.932e-5
0.206, 6.053e-5
0.207, 6.172e-5
0.208, 6.290e-5
0.209, 6.407e-5
0.210, 6.522e-5
0.211, 6.635e-5
0.212, 6.745e-5
0.213, 6.856e-5
0.214, 6.969e-5
0.215, 7.084e-5
0.216, 7.200e-5
0.217, 7.316e-5
0.218, 7.431e-5
0.219, 7.546e-5
0.220, 7.660e-5
0.221, 7.773e-5
0.222, 7.884e-5
0.223, 7.995e-5
0.224, 8.106e-5
0.225, 8.218e-5
0.226, 8.329e-5
0.227, 8.439e-5
0.228, 8.548e-5
0.229, 8.656e-5
0.230, 8.763e-5
0.231, 8.870e-5
0.232, 8.976e-5
0.233, 9.081e-5
0.234, 9.184e-5
0.235, 9.287e-5
0.236, 9.389e-5
0.237, 9.490e-5
0.238, 9.590e-5
0.239, 9.688e-5
0.240, 9.784e-5
0.241, 9.879e-5
0.242, 9.972e-5
0.243, 1.006e-4
0.244, 1.016e-4
0.245, 1.025e-4
0.246, 1.034e-4
0.247, 1.043e-4
0.248, 1.051e-4
0.249, 1.060e-4
0.250, 1.068e-4
0.251, 1.076e-4
0.252, 1.084e-4
0.253, 1.092e-4
0.254, 1.100e-4
0.255, 1.108e-4
0.256, 1.115e-4
0.257, 1.123e-4
0.258, 1.130e-4
0.259, 1.137e-4
0.260, 1.144e-4
0.261, 1.150e-4
0.262, 1.157e-4
0.263, 1.163e-4
0.264, 1.170e-4
0.265, 1.176e-4
0.266, 1.182e-4
0.267, 1.187e-4
0.268, 1.193e-4
0.269, 1.198e-4
0.270, 1.203e-4
0.271, 1.208e-4
0.272, 1.213e-4
0.273, 1.218e-4
0.274, 1.222e-4
0.275, 1.227e-4
0.276, 1.231e-4
0.277, 1.235e-4
0.278, 1.239e-4
0.279, 1.243e-4
0.280, 1.246e-4
0.281, 1.249e-4
0.282, 1.253e-4
0.283, 1.256e-4
0.284, 1.259e-4
0.285, 1.262e-4
0.286, 1.264e-4
0.287, 1.267e-4
0.288, 1.269e-4
0.289, 1.271e-4
0.290, 1.273e-4
0.291, 1.275e-4
0.292, 1.277e-4
0.293, 1.278e-4
0.294, 1.279e-4
0.295, 1.281e-4
0.296, 1.282e-4
0.297, 1.283e-4
0.298, 1.284e-4
0.299, 1.285e-4
0.300, 1.286e-4
0.301, 1.286e-4
0.302, 1.286e-4
0.303, 1.287e-4
0.304, 1.287e-4
0.305, 1.286e-4
0.306, 1.286e-4
0.307, 1.286e-4
0.308, 1.285e-4
0.309, 1.285e-4
0.310, 1.284e-4
0.311, 1.283e-4
0.312, 1.283e-4
0.313, 1.282e-4
0.314, 1.281e-4
0.315, 1.279e-4
0.316, 1.278e-4
0.317, 1.277e-4
0.318, 1.276e-4
0.319, 1.274e-4
0.320, 1.273e-4
0.321, 1.271e-4
0.322, 1.269e-4
0.323, 1.268e-4
0.324, 1.266e-4
0.325, 1.264e-4
0.326, 1.262e-4
0.327, 1.260e-4
0.328, 1.257e-4
0.329, 1.255e-4
0.330, 1.253e-4
0.331, 1.251e-4
0.332, 1.248e-4
0.333, 1.246e-4
0.334, 1.244e-4
0.335, 1.241e-4
0.336, 1.238e-4
0.337, 1.236e-4
0.338, 1.233e-4
0.339, 1.230e-4
0.340, 1.228e-4
0.341, 1.225e-4
0.342, 1.222e-4
0.343, 1.219e-4
0.344, 1.216e-4
0.345, 1.213e-4
0.346, 1.210e-4
0.347, 1.207e-4
0.348, 1.204e-4
0.349, 1.201e-4
0.350, 1.198e-4
0.351, 1.195e-4
0.352, 1.192e-4
0.353, 1.189e-4
0.354, 1.186e-4
0.355, 1.183e-4
0.356, 1.179e-4
0.357, 1.176e-4
0.358, 1.173e-4
0.359, 1.170e-4
0.360, 1.167e-4
0.361, 1.163e-4
0.362, 1.160e-4
0.363, 1.157e-4
0.364, 1.153e-4
0.365, 1.150e-4
0.366, 1.147e-4
0.367, 1.144e-4
0.368, 1.140e-4
0.369, 1.137e-4
0.370, 1.134e-4
0.371, 1.130e-4
0.372, 1.127e-4
0.373, 1.124e-4
0.374, 1.121e-4
0.375, 1.117e-4
0.376, 1.114e-4
0.377, 1.110e-4
0.378, 1.107e-4
0.379, 1.104e-4
0.380, 1.101e-4
0.381, 1.098e-4
0.382, 1.094e-4
0.383, 1.091e-4
0.384, 1.088e-4
0.385, 1.084e-4
0.386, 1.081e-4
0.387, 1.078e-4
0.388, 1.075e-4
0.389, 1.072e-4
0.390, 1.068e-4
0.391, 1.065e-4
0.392, 1.062e-4
0.393, 1.059e-4
0.394, 1.055e-4
0.395, 1.052e-4
0.396, 1.049e-4
0.397, 1.046e-4
0.398, 1.043e-4
0.399, 1.040e-4
0.400, 1.037e-4
0.401, 1.033e-4
0.402, 1.030e-4
0.403, 1.027e-4
0.404, 1.024e-4
0.405, 1.021e-4
0.406, 1.018e-4
0.407, 1.015e-4
0.408, 1.012e-4
0.409, 1.009e-4
0.410, 1.005e-4
0.411, 1.003e-4
0.412, 9.998e-5
0.413, 9.970e-5
0.414, 9.940e-5
0.415, 9.911e-5
0.416, 9.882e-5
0.417, 9.854e-5
0.418, 9.827e-5
0.419, 9.799e-5
0.420, 9.771e-5
0.421, 9.743e-5
0.422, 9.714e-5
0.423, 9.684e-5
0.424, 9.654e-5
0.425, 9.625e-5
0.426, 9.598e-5
0.427, 9.572e-5
0.428, 9.545e-5
0.429, 9.519e-5
0.430, 9.492e-5
0.431, 9.464e-5
0.432, 9.437e-5
0.433, 9.409e-5
0.434, 9.382e-5
0.435, 9.356e-5
0.436, 9.330e-5
0.437, 9.304e-5
0.438, 9.278e-5
0.439, 9.252e-5
0.440, 9.226e-5
0.441, 9.199e-5
0.442, 9.172e-5
0.443, 9.146e-5
0.444, 9.121e-5
0.445, 9.098e-5
0.446, 9.074e-5
0.447, 9.050e-5
0.448, 9.025e-5
0.449, 9.001e-5
0.450, 8.976e-5
0.451, 8.952e-5
0.452, 8.927e-5
0.453, 8.902e-5
0.454, 8.878e-5
0.455, 8.855e-5
0.456, 8.833e-5
0.457, 8.810e-5
0.458, 8.786e-5
0.459, 8.763e-5
0.460, 8.739e-5
0.461, 8.716e-5
0.462, 8.692e-5
0.463, 8.668e-5
0.464, 8.645e-5
0.465, 8.624e-5
0.466, 8.604e-5
0.467, 8.583e-5
0.468, 8.561e-5
0.469, 8.539e-5
0.470, 8.518e-5
0.471, 8.496e-5
0.472, 8.475e-5
0.473, 8.454e-5
0.474, 8.432e-5
0.475, 8.410e-5
0.476, 8.390e-5
0.477, 8.370e-5
0.478, 8.350e-5
0.479, 8.330e-5
0.480, 8.310e-5
0.481, 8.289e-5
0.482, 8.269e-5
0.483, 8.250e-5
0.484, 8.229e-5
0.485, 8.208e-5
0.486, 8.187e-5
0.487, 8.166e-5
0.488, 8.147e-5
0.489, 8.128e-5
0.490, 8.110e-5
0.491, 8.092e-5
0.492, 8.073e-5
0.493, 8.053e-5
0.494, 8.034e-5
0.495, 8.015e-5
0.496, 7.998e-5
0.497, 7.980e-5
0.498, 7.963e-5
0.499, 7.945e-5
0.500, 7.928e-5
0.501, 7.911e-5
0.502, 7.895e-5
0.503, 7.879e-5
0.504, 7.862e-5
0.505, 7.844e-5
0.506, 7.826e-5
0.507, 7.808e-5
0.508, 7.790e-5
0.509, 7.773e-5
0.510, 7.754e-5
0.511, 7.735e-5
0.512, 7.715e-5
0.513, 7.696e-5
0.514, 7.678e-5
0.515, 7.662e-5
0.516, 7.647e-5
0.517, 7.633e-5
0.518, 7.617e-5
0.519, 7.601e-5
0.520, 7.584e-5
0.521, 7.566e-5
0.522, 7.549e-5
0.523, 7.533e-5
0.524, 7.517e-5
0.525, 7.500e-5
0.526, 7.483e-5
0.527, 7.466e-5
0.528, 7.448e-5
0.529, 7.431e-5
0.530, 7.416e-5
0.531, 7.401e-5
0.532, 7.387e-5
0.533, 7.372e-5
0.534, 7.356e-5
0.535, 7.340e-5
0.536, 7.323e-5
0.537, 7.307e-5
0.538, 7.291e-5
0.539, 7.275e-5
0.540, 7.259e-5
0.541, 7.243e-5
0.542, 7.225e-5
0.543, 7.207e-5
0.544, 7.191e-5
0.545, 7.177e-5
0.546, 7.163e-5
0.547, 7.150e-5
0.548, 7.137e-5
0.549, 7.122e-5
0.550, 7.107e-5
0.551, 7.091e-5
0.552, 7.076e-5
0.553, 7.062e-5
0.554, 7.048e-5
0.555, 7.034e-5
0.556, 7.019e-5
0.557, 7.004e-5
0.558, 6.988e-5
0.559, 6.971e-5
0.560, 6.956e-5
0.561, 6.941e-5
0.562, 6.928e-5
0.563, 6.915e-5
0.564, 6.902e-5
0.565, 6.889e-5
0.566, 6.875e-5
0.567, 6.860e-5
0.568, 6.845e-5
0.569, 6.831e-5
0.570, 6.817e-5
0.571, 6.804e-5
0.572, 6.791e-5
0.573, 6.777e-5
0.574, 6.763e-5
0.575, 6.749e-5
0.576, 6.733e-5
0.577, 6.717e-5
0.578, 6.703e-5
0.579, 6.690e-5
0.580, 6.679e-5
0.581, 6.669e-5
0.582, 6.658e-5
0.583, 6.646e-5
0.584, 6.633e-5
0.585, 6.620e-5
0.586, 6.606e-5
0.587, 6.592e-5
0.588, 6.579e-5
0.589, 6.566e-5
0.590, 6.554e-5
0.591, 6.542e-5
0.592, 6.529e-5
0.593, 6.517e-5
0.594, 6.504e-5
0.595, 6.491e-5
0.596, 6.478e-5
0.597, 6.466e-5
0.598, 6.454e-5
0.599, 6.442e-5
0.600, 6.431e-5
0.601, 6.421e-5
0.602, 6.410e-5
0.603, 6.399e-5
0.604, 6.387e-5
0.605, 6.375e-5
0.606, 6.363e-5
0.607, 6.351e-5
0.608, 6.339e-5
0.609, 6.328e-5
0.610, 6.317e-5
0.611, 6.306e-5
0.612, 6.296e-5
0.613, 6.286e-5
0.614, 6.276e-5
0.615, 6.265e-5
0.616, 6.252e-5
0.617, 6.239e-5
0.618, 6.225e-5
0.619, 6.214e-5
0.620, 6.204e-5
0.621, 6.195e-5
0.622, 6.187e-5
0.623, 6.178e-5
0.624, 6.169e-5
0.625, 6.160e-5
0.626, 6.151e-5
0.627, 6.141e-5
0.628, 6.131e-5
0.629, 6.120e-5
0.630, 6.110e-5
0.631, 6.100e-5
0.632, 6.089e-5
0.633, 6.080e-5
0.634, 6.070e-5
0.635, 6.061e-5
0.636, 6.052e-5
0.637, 6.042e-5
0.638, 6.032e-5
0.639, 6.022e-5
0.640, 6.013e-5
0.641, 6.002e-5
0.642, 5.992e-5
0.643, 5.982e-5
0.644, 5.972e-5
0.645, 5.963e-5
0.646, 5.954e-5
0.647, 5.946e-5
0.648, 5.937e-5
0.649, 5.929e-5
0.650, 5.920e-5
0.651, 5.911e-5
0.652, 5.903e-5
0.653, 5.894e-5
0.654, 5.886e-5
0.655, 5.877e-5
0.656, 5.868e-5
0.657, 5.859e-5
0.658, 5.851e-5
0.659, 5.843e-5
0.660, 5.835e-5
0.661, 5.827e-5
0.662, 5.819e-5
0.663, 5.811e-5
0.664, 5.802e-5
0.665, 5.793e-5
0.666, 5.784e-5
0.667, 5.774e-5
0.668, 5.765e-5
0.669, 5.755e-5
0.670, 5.745e-5
0.671, 5.736e-5
0.672, 5.728e-5
0.673, 5.719e-5
0.674, 5.712e-5
0.675, 5.705e-5
0.676, 5.698e-5
0.677, 5.692e-5
0.678, 5.684e-5
0.679, 5.677e-5
0.680, 5.670e-5
0.681, 5.662e-5
0.682, 5.655e-5
0.683, 5.647e-5
0.684, 5.640e-5
0.685, 5.632e-5
0.686, 5.624e-5
0.687, 5.617e-5
0.688, 5.609e-5
0.689, 5.602e-5
0.690, 5.595e-5
0.691, 5.587e-5
0.692, 5.580e-5
0.693, 5.573e-5
0.694, 5.566e-5
0.695, 5.558e-5
0.696, 5.551e-5
0.697, 5.544e-5
0.698, 5.537e-5
0.699, 5.530e-5
0.700, 5.523e-5
0.701, 5.515e-5
0.702, 5.507e-5
0.703, 5.499e-5
0.704, 5.491e-5
0.705, 5.484e-5
0.706, 5.477e-5
0.707, 5.470e-5
0.708, 5.464e-5
0.709, 5.458e-5
0.710, 5.452e-5
0.711, 5.446e-5
0.712, 5.439e-5
0.713, 5.433e-5
0.714, 5.426e-5
0.715, 5.420e-5
0.716, 5.413e-5
0.717, 5.406e-5
0.718, 5.401e-5
0.719, 5.395e-5
0.720, 5.389e-5
0.721, 5.383e-5
0.722, 5.377e-5
0.723, 5.370e-5
0.724, 5.364e-5
0.725, 5.358e-5
0.726, 5.352e-5
0.727, 5.347e-5
0.728, 5.342e-5
0.729, 5.336e-5
0.730, 5.330e-5
0.731, 5.324e-5
0.732, 5.319e-5
0.733, 5.313e-5
0.734, 5.307e-5
0.735, 5.301e-5
0.736, 5.295e-5
0.737, 5.289e-5
0.738, 5.282e-5
0.739, 5.275e-5
0.740, 5.269e-5
0.741, 5.262e-5
0.742, 5.255e-5
0.743, 5.249e-5
0.744, 5.243e-5
0.745, 5.237e-5
0.746, 5.232e-5
0.747, 5.227e-5
0.748, 5.222e-5
0.749, 5.218e-5
0.750, 5.213e-5
0.751, 5.209e-5
0.752, 5.204e-5
0.753, 5.199e-5
0.754, 5.195e-5
0.755, 5.190e-5
0.756, 5.185e-5
0.757, 5.180e-5
0.758, 5.175e-5
0.759, 5.170e-5
0.760, 5.165e-5
0.761, 5.161e-5
0.762, 5.156e-5
0.763, 5.151e-5
0.764, 5.146e-5
0.765, 5.141e-5
0.766, 5.136e-5
0.767, 5.131e-5
0.768, 5.126e-5
0.769, 5.122e-5
0.770, 5.117e-5
0.771, 5.112e-5
0.772, 5.108e-5
0.773, 5.104e-5
0.774, 5.100e-5
0.775, 5.095e-5
0.776, 5.091e-5
0.777, 5.087e-5
0.778, 5.082e-5
0.779, 5.078e-5
0.780, 5.074e-5
0.781, 5.069e-5
0.782, 5.064e-5
0.783, 5.060e-5
0.784, 5.056e-5
0.785, 5.052e-5
0.786, 5.047e-5
0.787, 5.043e-5
0.788, 5.039e-5
0.789, 5.034e-5
0.790, 5.029e-5
0.791, 5.024e-5
0.792, 5.019e-5
0.793, 5.015e-5
0.794, 5.011e-5
0.795, 5.006e-5
0.796, 5.002e-5
0.797, 4.998e-5
0.798, 4.994e-5
0.799, 4.990e-5
0.800, 4.873e-5
0.799, 4.758e-5
0.798, 4.667e-5
0.797, 4.600e-5
0.796, 4.566e-5
0.795, 4.546e-5
0.794, 4.530e-5
0.793, 4.511e-5
0.792, 4.494e-5
0.791, 4.479e-5
0.790, 4.466e-5
0.789, 4.452e-5
0.788, 4.440e-5
0.787, 4.427e-5
0.786, 4.414e-5
0.785, 4.402e-5
0.784, 4.390e-5
0.783, 4.379e-5
0.782, 4.369e-5
0.781, 4.359e-5
0.780, 4.349e-5
0.779, 4.339e-5
0.778, 4.329e-5
0.777, 4.319e-5
0.776, 4.308e-5
0.775, 4.298e-5
0.774, 4.287e-5
0.773, 4.277e-5
0.772, 4.267e-5
0.771, 4.259e-5
0.770, 4.251e-5
0.769, 4.243e-5
0.768, 4.236e-5
0.767, 4.229e-5
0.766, 4.223e-5
0.765, 4.216e-5
0.764, 4.209e-5
0.763, 4.201e-5
0.762, 4.193e-5
0.761, 4.186e-5
0.760, 4.179e-5
0.759, 4.172e-5
0.758, 4.166e-5
0.757, 4.159e-5
0.756, 4.153e-5
0.755, 4.146e-5
0.754, 4.140e-5
0.753, 4.134e-5
0.752, 4.128e-5
0.751, 4.121e-5
0.750, 4.115e-5
0.749, 4.109e-5
0.748, 4.103e-5
0.747, 4.098e-5
0.746, 4.092e-5
0.745, 4.087e-5
0.744, 4.081e-5
0.743, 4.076e-5
0.742, 4.069e-5
0.741, 4.063e-5
0.740, 4.056e-5
0.739, 4.049e-5
0.738, 4.041e-5
0.737, 4.034e-5
0.736, 4.027e-5
0.735, 4.021e-5
0.734, 4.015e-5
0.733, 4.010e-5
0.732, 4.004e-5
0.731, 3.999e-5
0.730, 3.994e-5
0.729, 3.988e-5
0.728, 3.983e-5
0.727, 3.977e-5
0.726, 3.972e-5
0.725, 3.966e-5
0.724, 3.961e-5
0.723, 3.956e-5
0.722, 3.950e-5
0.721, 3.944e-5
0.720, 3.938e-5
0.719, 3.933e-5
0.718, 3.927e-5
0.717, 3.922e-5
0.716, 3.917e-5
0.715, 3.911e-5
0.714, 3.905e-5
0.713, 3.899e-5
0.712, 3.893e-5
0.711, 3.888e-5
0.710, 3.883e-5
0.709, 3.878e-5
0.708, 3.873e-5
0.707, 3.868e-5
0.706, 3.863e-5
0.705, 3.858e-5
0.704, 3.853e-5
0.703, 3.847e-5
0.702, 3.842e-5
0.701, 3.837e-5
0.700, 3.832e-5
0.699, 3.826e-5
0.698, 3.821e-5
0.697, 3.815e-5
0.696, 3.809e-5
0.695, 3.803e-5
0.694, 3.798e-5
0.693, 3.793e-5
0.692, 3.788e-5
0.691, 3.783e-5
0.690, 3.778e-5
0.689, 3.773e-5
0.688, 3.768e-5
0.687, 3.764e-5
0.686, 3.760e-5
0.685, 3.756e-5
0.684, 3.752e-5
0.683, 3.748e-5
0.682, 3.744e-5
0.681, 3.740e-5
0.680, 3.736e-5
0.679, 3.732e-5
0.678, 3.728e-5
0.677, 3.723e-5
0.676, 3.718e-5
0.675, 3.714e-5
0.674, 3.709e-5
0.673, 3.705e-5
0.672, 3.700e-5
0.671, 3.695e-5
0.670, 3.691e-5
0.669, 3.686e-5
0.668, 3.681e-5
0.667, 3.676e-5
0.666, 3.672e-5
0.665, 3.668e-5
0.664, 3.664e-5
0.663, 3.660e-5
0.662, 3.656e-5
0.661, 3.651e-5
0.660, 3.647e-5
0.659, 3.642e-5
0.658, 3.638e-5
0.657, 3.634e-5
0.656, 3.630e-5
0.655, 3.625e-5
0.654, 3.621e-5
0.653, 3.617e-5
0.652, 3.612e-5
0.651, 3.608e-5
0.650, 3.604e-5
0.649, 3.600e-5
0.648, 3.596e-5
0.647, 3.592e-5
0.646, 3.588e-5
0.645, 3.583e-5
0.644, 3.578e-5
0.643, 3.574e-5
0.642, 3.569e-5
0.641, 3.564e-5
0.640, 3.559e-5
0.639, 3.555e-5
0.638, 3.550e-5
0.637, 3.545e-5
0.636, 3.540e-5
0.635, 3.535e-5
0.634, 3.531e-5
0.633, 3.527e-5
0.632, 3.523e-5
0.631, 3.519e-5
0.630, 3.515e-5
0.629, 3.512e-5
0.628, 3.508e-5
0.627, 3.506e-5
0.626, 3.503e-5
0.625, 3.499e-5
0.624, 3.496e-5
0.623, 3.492e-5
0.622, 3.488e-5
0.621, 3.484e-5
0.620, 3.480e-5
0.619, 3.476e-5
0.618, 3.472e-5
0.617, 3.468e-5
0.616, 3.464e-5
0.615, 3.459e-5
0.614, 3.454e-5
0.613, 3.451e-5
0.612, 3.447e-5
0.611, 3.444e-5
0.610, 3.441e-5
0.609, 3.437e-5
0.608, 3.434e-5
0.607, 3.430e-5
0.606, 3.427e-5
0.605, 3.423e-5
0.604, 3.420e-5
0.603, 3.416e-5
0.602, 3.412e-5
0.601, 3.408e-5
0.600, 3.404e-5
0.599, 3.401e-5
0.598, 3.398e-5
0.597, 3.394e-5
0.596, 3.391e-5
0.595, 3.387e-5
0.594, 3.384e-5
0.593, 3.380e-5
0.592, 3.377e-5
0.591, 3.374e-5
0.590, 3.370e-5
0.589, 3.367e-5
0.588, 3.363e-5
0.587, 3.360e-5
0.586, 3.356e-5
0.585, 3.352e-5
0.584, 3.348e-5
0.583, 3.344e-5
0.582, 3.340e-5
0.581, 3.336e-5
0.580, 3.332e-5
0.579, 3.328e-5
0.578, 3.324e-5
0.577, 3.320e-5
0.576, 3.316e-5
0.575, 3.312e-5
0.574, 3.308e-5
0.573, 3.303e-5
0.572, 3.299e-5
0.571, 3.294e-5
0.570, 3.291e-5
0.569, 3.287e-5
0.568, 3.283e-5
0.567, 3.280e-5
0.566, 3.277e-5
0.565, 3.273e-5
0.564, 3.270e-5
0.563, 3.267e-5
0.562, 3.264e-5
0.561, 3.261e-5
0.560, 3.258e-5
0.559, 3.255e-5
0.558, 3.251e-5
0.557, 3.248e-5
0.556, 3.244e-5
0.555, 3.241e-5
0.554, 3.238e-5
0.553, 3.234e-5
0.552, 3.230e-5
0.551, 3.226e-5
0.550, 3.222e-5
0.549, 3.219e-5
0.548, 3.215e-5
0.547, 3.211e-5
0.546, 3.206e-5
0.545, 3.202e-5
0.544, 3.199e-5
0.543, 3.195e-5
0.542, 3.191e-5
0.541, 3.187e-5
0.540, 3.183e-5
0.539, 3.179e-5
0.538, 3.177e-5
0.537, 3.174e-5
0.536, 3.172e-5
0.535, 3.169e-5
0.534, 3.165e-5
0.533, 3.161e-5
0.532, 3.157e-5
0.531, 3.153e-5
0.530, 3.149e-5
0.529, 3.144e-5
0.528, 3.140e-5
0.527, 3.136e-5
0.526, 3.133e-5
0.525, 3.129e-5
0.524, 3.124e-5
0.523, 3.120e-5
0.522, 3.116e-5
0.521, 3.112e-5
0.520, 3.108e-5
0.519, 3.104e-5
0.518, 3.099e-5
0.517, 3.095e-5
0.516, 3.091e-5
0.515, 3.087e-5
0.514, 3.082e-5
0.513, 3.078e-5
0.512, 3.074e-5
0.511, 3.069e-5
0.510, 3.064e-5
0.509, 3.059e-5
0.508, 3.054e-5
0.507, 3.049e-5
0.506, 3.044e-5
0.505, 3.040e-5
0.504, 3.037e-5
0.503, 3.033e-5
0.502, 3.030e-5
0.501, 3.026e-5
0.500, 3.022e-5
0.499, 3.018e-5
0.498, 3.014e-5
0.497, 3.010e-5
0.496, 3.006e-5
0.495, 3.002e-5
0.494, 2.998e-5
0.493, 2.994e-5
0.492, 2.989e-5
0.491, 2.985e-5
0.490, 2.981e-5
0.489, 2.977e-5
0.488, 2.972e-5
0.487, 2.968e-5
0.486, 2.963e-5
0.485, 2.959e-5
0.484, 2.954e-5
0.483, 2.950e-5
0.482, 2.946e-5
0.481, 2.941e-5
0.480, 2.936e-5
0.479, 2.932e-5
0.478, 2.927e-5
0.477, 2.923e-5
0.476, 2.918e-5
0.475, 2.914e-5
0.474, 2.910e-5
0.473, 2.906e-5
0.472, 2.901e-5
0.471, 2.896e-5
0.470, 2.891e-5
0.469, 2.887e-5
0.468, 2.882e-5
0.467, 2.878e-5
0.466, 2.874e-5
0.465, 2.870e-5
0.464, 2.865e-5
0.463, 2.861e-5
0.462, 2.856e-5
0.461, 2.851e-5
0.460, 2.845e-5
0.459, 2.839e-5
0.458, 2.834e-5
0.457, 2.828e-5
0.456, 2.823e-5
0.455, 2.818e-5
0.454, 2.813e-5
0.453, 2.807e-5
0.452, 2.800e-5
0.451, 2.794e-5
0.450, 2.788e-5
0.449, 2.783e-5
0.448, 2.779e-5
0.447, 2.774e-5
0.446, 2.769e-5
0.445, 2.763e-5
0.444, 2.756e-5
0.443, 2.748e-5
0.442, 2.740e-5
0.441, 2.732e-5
0.440, 2.725e-5
0.439, 2.720e-5
0.438, 2.715e-5
0.437, 2.709e-5
0.436, 2.704e-5
0.435, 2.698e-5
0.434, 2.693e-5
0.433, 2.687e-5
0.432, 2.681e-5
0.431, 2.675e-5
0.430, 2.669e-5
0.429, 2.664e-5
0.428, 2.659e-5
0.427, 2.654e-5
0.426, 2.648e-5
0.425, 2.643e-5
0.424, 2.637e-5
0.423, 2.632e-5
0.422, 2.626e-5
0.421, 2.620e-5
0.420, 2.614e-5
0.419, 2.609e-5
0.418, 2.603e-5
0.417, 2.596e-5
0.416, 2.590e-5
0.415, 2.583e-5
0.414, 2.577e-5
0.413, 2.570e-5
0.412, 2.565e-5
0.411, 2.559e-5
0.410, 2.555e-5
0.409, 2.549e-5
0.408, 2.544e-5
0.407, 2.538e-5
0.406, 2.532e-5
0.405, 2.526e-5
0.404, 2.520e-5
0.403, 2.514e-5
0.402, 2.508e-5
0.401, 2.502e-5
0.400, 2.496e-5
0.399, 2.490e-5
0.398, 2.484e-5
0.397, 2.477e-5
0.396, 2.471e-5
0.395, 2.464e-5
0.394, 2.457e-5
0.393, 2.451e-5
0.392, 2.444e-5
0.391, 2.437e-5
0.390, 2.430e-5
0.389, 2.424e-5
0.388, 2.418e-5
0.387, 2.412e-5
0.386, 2.406e-5
0.385, 2.399e-5
0.384, 2.392e-5
0.383, 2.385e-5
0.382, 2.378e-5
0.381, 2.370e-5
0.380, 2.362e-5
0.379, 2.354e-5
0.378, 2.346e-5
0.377, 2.338e-5
0.376, 2.330e-5
0.375, 2.322e-5
0.374, 2.314e-5
0.373, 2.307e-5
0.372, 2.300e-5
0.371, 2.294e-5
0.370, 2.288e-5
0.369, 2.281e-5
0.368, 2.275e-5
0.367, 2.267e-5
0.366, 2.259e-5
0.365, 2.251e-5
0.364, 2.243e-5
0.363, 2.235e-5
0.362, 2.226e-5
0.361, 2.218e-5
0.360, 2.209e-5
0.359, 2.200e-5
0.358, 2.191e-5
0.357, 2.182e-5
0.356, 2.173e-5
0.355, 2.165e-5
0.354, 2.156e-5
0.353, 2.146e-5
0.352, 2.136e-5
0.351, 2.127e-5
0.350, 2.116e-5
0.349, 2.106e-5
0.348, 2.095e-5
0.347, 2.085e-5
0.346, 2.074e-5
0.345, 2.063e-5
0.344, 2.053e-5
0.343, 2.043e-5
0.342, 2.033e-5
0.341, 2.022e-5
0.340, 2.011e-5
0.339, 1.999e-5
0.338, 1.988e-5
0.337, 1.976e-5
0.336, 1.964e-5
0.335, 1.951e-5
0.334, 1.938e-5
0.333, 1.925e-5
0.332, 1.912e-5
0.331, 1.898e-5
0.330, 1.883e-5
0.329, 1.866e-5
0.328, 1.849e-5
0.327, 1.832e-5
0.326, 1.816e-5
0.325, 1.800e-5
0.324, 1.785e-5
0.323, 1.771e-5
0.322, 1.755e-5
0.321, 1.740e-5
0.320, 1.724e-5
0.319, 1.709e-5
0.318, 1.692e-5
0.317, 1.675e-5
0.316, 1.656e-5
0.315, 1.636e-5
0.314, 1.615e-5
0.313, 1.593e-5
0.312, 1.572e-5
0.311, 1.552e-5
0.310, 1.533e-5
0.309, 1.513e-5
0.308, 1.492e-5
0.307, 1.471e-5
0.306, 1.447e-5
0.305, 1.422e-5
0.304, 1.395e-5
0.303, 1.367e-5
0.302, 1.340e-5
0.301, 1.314e-5
0.300, 1.290e-5
0.299, 1.265e-5
0.298, 1.239e-5
0.297, 1.212e-5
0.296, 1.183e-5
0.295, 1.152e-5
0.294, 1.121e-5
0.293, 1.089e-5
0.292, 1.057e-5
0.291, 1.026e-5
0.290, 9.943e-6
0.289, 9.606e-6
0.288, 9.250e-6
0.287, 8.878e-6
0.286, 8.503e-6
0.285, 8.139e-6
0.284, 7.778e-6
0.283, 7.406e-6
0.282, 7.018e-6
0.281, 6.610e-6
0.280, 6.189e-6
0.279, 5.769e-6
0.278, 5.345e-6
0.277, 4.905e-6
0.276, 4.453e-6
0.275, 3.990e-6
0.274, 3.526e-6
0.273, 3.066e-6
0.272, 2.601e-6
0.271, 2.123e-6
0.270, 1.632e-6
0.269, 1.126e-6
0.268, 6.061e-7
0.267, 6.882e-8
0.266, -4.858e-7
0.265, -1.055e-6
0.264, -1.631e-6
0.263, -2.214e-6
0.262, -2.804e-6
0.261, -3.405e-6
0.260, -4.019e-6
0.259, -4.644e-6
0.258, -5.280e-6
0.257, -5.930e-6
0.256, -6.588e-6
0.255, -7.257e-6
0.254, -7.939e-6
0.253, -8.635e-6
0.252, -9.345e-6
0.251, -1.008e-5
0.250, -1.082e-5
0.249, -1.157e-5
0.248, -1.233e-5
0.247, -1.310e-5
0.246, -1.388e-5
0.245, -1.468e-5
0.244, -1.549e-5
0.243, -1.631e-5
0.242, -1.714e-5
0.241, -1.797e-5
0.240, -1.882e-5
0.239, -1.969e-5
0.238, -2.057e-5
0.237, -2.146e-5
0.236, -2.237e-5
0.235, -2.328e-5
0.234, -2.421e-5
0.233, -2.514e-5
0.232, -2.609e-5
0.231, -2.705e-5
0.230, -2.803e-5
0.229, -2.902e-5
0.228, -3.002e-5
0.227, -3.102e-5
0.226, -3.204e-5
0.225, -3.307e-5
0.224, -3.411e-5
0.223, -3.516e-5
0.222, -3.621e-5
0.221, -3.726e-5
0.220, -3.831e-5
0.219, -3.937e-5
0.218, -4.044e-5
0.217, -4.154e-5
0.216, -4.265e-5
0.215, -4.378e-5
0.214, -4.492e-5
0.213, -4.606e-5
0.212, -4.720e-5
0.211, -4.835e-5
0.210, -4.950e-5
0.209, -5.066e-5
0.208, -5.182e-5
0.207, -5.300e-5
0.206, -5.420e-5
0.205, -5.542e-5
0.204, -5.665e-5
0.203, -5.785e-5
0.202, -5.904e-5
0.201, -6.023e-5
0.200, -6.142e-5
0.199, -6.263e-5
0.198, -6.384e-5
0.197, -6.505e-5
0.196, -6.626e-5
0.195, -6.747e-5
0.194, -6.868e-5
0.193, -6.989e-5
0.192, -7.110e-5
0.191, -7.232e-5
0.190, -7.353e-5
0.189, -7.474e-5
0.188, -7.593e-5
0.187, -7.712e-5
0.186, -7.830e-5
0.185, -7.949e-5
0.184, -8.068e-5
0.183, -8.187e-5
0.182, -8.305e-5
0.181, -8.424e-5
0.180, -8.541e-5
0.179, -8.658e-5
0.178, -8.774e-5
0.177, -8.890e-5
0.176, -9.005e-5
0.175, -9.120e-5
0.174, -9.234e-5
0.173, -9.347e-5
0.172, -9.458e-5
0.171, -9.567e-5
0.170, -9.675e-5
0.169, -9.782e-5
0.168, -9.889e-5
0.167, -9.995e-5
0.166, -1.010e-4
0.165, -1.021e-4
0.164, -1.031e-4
0.163, -1.041e-4
0.162, -1.051e-4
0.161, -1.061e-4
0.160, -1.071e-4
0.159, -1.081e-4
0.158, -1.090e-4
0.157, -1.099e-4
0.156, -1.109e-4
0.155, -1.118e-4
0.154, -1.127e-4
0.153, -1.135e-4
0.152, -1.144e-4
0.151, -1.152e-4
0.150, -1.160e-4
0.149, -1.168e-4
0.148, -1.176e-4
0.147, -1.184e-4
0.146, -1.192e-4
0.145, -1.199e-4
0.144, -1.206e-4
0.143, -1.213e-4
0.142, -1.220e-4
0.141, -1.227e-4
0.140, -1.233e-4
0.139, -1.239e-4
0.138, -1.245e-4
0.137, -1.251e-4
0.136, -1.256e-4
0.135, -1.262e-4
0.134, -1.267e-4
0.133, -1.272e-4
0.132, -1.278e-4
0.131, -1.282e-4
0.130, -1.287e-4
0.129, -1.291e-4
0.128, -1.295e-4
0.127, -1.298e-4
0.126, -1.302e-4
0.125, -1.306e-4
0.124, -1.309e-4
0.123, -1.312e-4
0.122, -1.315e-4
0.121, -1.318e-4
0.120, -1.320e-4
0.119, -1.323e-4
0.118, -1.325e-4
0.117, -1.328e-4
0.116, -1.330e-4
0.115, -1.331e-4
0.114, -1.333e-4
0.113, -1.334e-4
0.112, -1.335e-4
0.111, -1.336e-4
0.110, -1.337e-4
0.109, -1.337e-4
0.108, -1.338e-4
0.107, -1.338e-4
0.106, -1.338e-4
0.105, -1.338e-4
0.104, -1.338e-4
0.103, -1.338e-4
0.102, -1.337e-4
0.101, -1.337e-4
0.100, -1.336e-4
0.099, -1.335e-4
0.098, -1.334e-4
0.097, -1.334e-4
0.096, -1.333e-4
0.095, -1.332e-4
0.094, -1.330e-4
0.093, -1.329e-4
0.092, -1.327e-4
0.091, -1.325e-4
0.090, -1.323e-4
0.089, -1.321e-4
0.088, -1.319e-4
0.087, -1.317e-4
0.086, -1.315e-4
0.085, -1.313e-4
0.084, -1.310e-4
0.083, -1.308e-4
0.082, -1.306e-4
0.081, -1.303e-4
0.080, -1.300e-4
0.079, -1.298e-4
0.078, -1.295e-4
0.077, -1.292e-4
0.076, -1.289e-4
0.075, -1.287e-4
0.074, -1.284e-4
0.073, -1.281e-4
0.072, -1.278e-4
0.071, -1.274e-4
0.070, -1.271e-4
0.069, -1.268e-4
0.068, -1.265e-4
0.067, -1.261e-4
0.066, -1.258e-4
0.065, -1.255e-4
0.064, -1.251e-4
0.063, -1.248e-4
0.062, -1.244e-4
0.061, -1.241e-4
0.060, -1.238e-4
0.059, -1.234e-4
0.058, -1.231e-4
0.057, -1.227e-4
0.056, -1.224e-4
0.055, -1.220e-4
0.054, -1.217e-4
0.053, -1.213e-4
0.052, -1.210e-4
0.051, -1.206e-4
0.050, -1.202e-4
0.049, -1.199e-4
0.048, -1.195e-4
0.047, -1.192e-4
0.046, -1.188e-4
0.045, -1.185e-4
0.044, -1.181e-4
0.043, -1.177e-4
0.042, -1.174e-4
0.041, -1.170e-4
0.040, -1.166e-4
0.039, -1.163e-4
0.038, -1.159e-4
0.037, -1.156e-4
0.036, -1.152e-4
0.035, -1.149e-4
0.034, -1.145e-4
0.033, -1.142e-4
0.032, -1.138e-4
0.031, -1.135e-4
0.030, -1.132e-4
0.029, -1.128e-4
0.028, -1.125e-4
0.027, -1.121e-4
0.026, -1.118e-4
0.025, -1.114e-4
0.024, -1.111e-4
0.023, -1.107e-4
0.022, -1.104e-4
0.021, -1.101e-4
0.020, -1.097e-4
0.019, -1.094e-4
0.018, -1.091e-4
0.017, -1.088e-4
0.016, -1.084e-4
0.015, -1.081e-4
0.014, -1.078e-4
0.013, -1.074e-4
0.012, -1.071e-4
0.011, -1.068e-4
0.010, -1.065e-4
0.009, -1.062e-4
0.008, -1.058e-4
0.007, -1.055e-4
0.006, -1.052e-4
0.005, -1.049e-4
0.004, -1.046e-4
0.003, -1.043e-4
0.002, -1.040e-4
0.001, -1.037e-4
0.000, -1.034e-4
-0.001, -1.031e-4
-0.002, -1.028e-4
-0.003, -1.025e-4
-0.004, -1.022e-4
-0.005, -1.019e-4
-0.006, -1.016e-4
-0.007, -1.013e-4
-0.008, -1.010e-4
-0.009, -1.007e-4
-0.010, -1.004e-4
-0.011, -1.002e-4
-0.012, -9.987e-5
-0.013, -9.959e-5
-0.014, -9.932e-5
-0.015, -9.906e-5
-0.016, -9.880e-5
-0.017, -9.853e-5
-0.018, -9.825e-5
-0.019, -9.797e-5
-0.020, -9.770e-5
-0.021, -9.743e-5
-0.022, -9.716e-5
-0.023, -9.691e-5
-0.024, -9.666e-5
-0.025, -9.641e-5
-0.026, -9.616e-5
-0.027, -9.591e-5
-0.028, -9.565e-5
-0.029, -9.539e-5
-0.030, -9.514e-5
-0.031, -9.489e-5
-0.032, -9.465e-5
-0.033, -9.441e-5
-0.034, -9.417e-5
-0.035, -9.393e-5
-0.036, -9.367e-5
-0.037, -9.342e-5
-0.038, -9.316e-5
-0.039, -9.292e-5
-0.040, -9.268e-5
-0.041, -9.245e-5
-0.042, -9.221e-5
-0.043, -9.198e-5
-0.044, -9.176e-5
-0.045, -9.153e-5
-0.046, -9.129e-5
-0.047, -9.105e-5
-0.048, -9.082e-5
-0.049, -9.059e-5
-0.050, -9.037e-5
-0.051, -9.016e-5
-0.052, -8.993e-5
-0.053, -8.971e-5
-0.054, -8.950e-5
-0.055, -8.930e-5
-0.056, -8.910e-5
-0.057, -8.888e-5
-0.058, -8.865e-5
-0.059, -8.843e-5
-0.060, -8.821e-5
-0.061, -8.800e-5
-0.062, -8.779e-5
-0.063, -8.759e-5
-0.064, -8.738e-5
-0.065, -8.717e-5
-0.066, -8.698e-5
-0.067, -8.678e-5
-0.068, -8.658e-5
-0.069, -8.637e-5
-0.070, -8.615e-5
-0.071, -8.594e-5
-0.072, -8.575e-5
-0.073, -8.556e-5
-0.074, -8.537e-5
-0.075, -8.518e-5
-0.076, -8.498e-5
-0.077, -8.479e-5
-0.078, -8.461e-5
-0.079, -8.443e-5
-0.080, -8.426e-5
-0.081, -8.407e-5
-0.082, -8.387e-5
-0.083, -8.366e-5
-0.084, -8.346e-5
-0.085, -8.327e-5
-0.086, -8.310e-5
-0.087, -8.292e-5
-0.088, -8.275e-5
-0.089, -8.256e-5
-0.090, -8.238e-5
-0.091, -8.220e-5
-0.092, -8.203e-5
-0.093, -8.187e-5
-0.094, -8.169e-5
-0.095, -8.151e-5
-0.096, -8.132e-5
-0.097, -8.114e-5
-0.098, -8.097e-5
-0.099, -8.080e-5
-0.100, -8.064e-5
-0.101, -8.047e-5
-0.102, -8.030e-5
-0.103, -8.012e-5
-0.104, -7.996e-5
-0.105, -7.980e-5
-0.106, -7.965e-5
-0.107, -7.951e-5
-0.108, -7.937e-5
-0.109, -7.921e-5
-0.110, -7.904e-5
-0.111, -7.886e-5
-0.112, -7.868e-5
-0.113, -7.852e-5
-0.114, -7.836e-5
-0.115, -7.821e-5
-0.116, -7.806e-5
-0.117, -7.791e-5
-0.118, -7.776e-5
-0.119, -7.761e-5
-0.120, -7.746e-5
-0.121, -7.731e-5
-0.122, -7.717e-5
-0.123, -7.704e-5
-0.124, -7.690e-5
-0.125, -7.675e-5
-0.126, -7.660e-5
-0.127, -7.645e-5
-0.128, -7.629e-5
-0.129, -7.615e-5
-0.130, -7.601e-5
-0.131, -7.587e-5
-0.132, -7.573e-5
-0.133, -7.559e-5
-0.134, -7.544e-5
-0.135, -7.529e-5
-0.136, -7.515e-5
-0.137, -7.501e-5
-0.138, -7.488e-5
-0.139, -7.476e-5
-0.140, -7.465e-5
-0.141, -7.452e-5
-0.142, -7.439e-5
-0.143, -7.424e-5
-0.144, -7.409e-5
-0.145, -7.394e-5
-0.146, -7.379e-5
-0.147, -7.366e-5
-0.148, -7.353e-5
-0.149, -7.340e-5
-0.150, -7.327e-5
-0.151, -7.314e-5
-0.152, -7.300e-5
-0.153, -7.287e-5
-0.154, -7.274e-5
-0.155, -7.262e-5
-0.156, -7.250e-5
-0.157, -7.238e-5
-0.158, -7.227e-5
-0.159, -7.216e-5
-0.160, -7.204e-5
-0.161, -7.192e-5
-0.162, -7.179e-5
-0.163, -7.165e-5
-0.164, -7.152e-5
-0.165, -7.139e-5
-0.166, -7.127e-5
-0.167, -7.115e-5
-0.168, -7.103e-5
-0.169, -7.092e-5
-0.170, -7.081e-5
-0.171, -7.069e-5
-0.172, -7.057e-5
-0.173, -7.045e-5
-0.174, -7.034e-5
-0.175, -7.022e-5
-0.176, -7.011e-5
-0.177, -7.001e-5
-0.178, -6.991e-5
-0.179, -6.982e-5
-0.180, -6.973e-5
-0.181, -6.964e-5
-0.182, -6.954e-5
-0.183, -6.943e-5
-0.184, -6.931e-5
-0.185, -6.919e-5
-0.186, -6.906e-5
-0.187, -6.894e-5
-0.188, -6.883e-5
-0.189, -6.873e-5
-0.190, -6.863e-5
-0.191, -6.853e-5
-0.192, -6.843e-5
-0.193, -6.833e-5
-0.194, -6.823e-5
-0.195, -6.812e-5
-0.196, -6.802e-5
-0.197, -6.792e-5
-0.198, -6.781e-5
-0.199, -6.771e-5
