Dec. 18, 2021   17:35:04
Cyclic Voltammetry
File: c:\gtl 2\cp\rib,pn\vb2\surface area\ferric characterization\glu-cpe-50.txt
Data Source:  Experiment
Instrument Model:  CHI760D
Data Proc:  Smoothing
Header: 
Note: 

Init E (V) = -0.2
High E (V) = 0.8
Low E (V) = -0.2
Init P/N = P
Scan Rate (V/s) = 0.05
Segment = 2
Sample Interval (V) = 0.001
Quiet Time (sec) = 2
Sensitivity (A/V) = 0.001

Segment 1:
Ep = 0.280V
Eh = 0.194V
ip = 1.675e-4A
Ah = 3.034e-4C

Segment 2:
Ep = 0.133V
Eh = 0.215V
ip = -1.754e-4A
Ah = -3.060e-4C

Potential/V, Current/A

-0.200, -4.932e-5
-0.199, -4.812e-5
-0.198, -4.713e-5
-0.197, -4.637e-5
-0.196, -4.590e-5
-0.195, -4.557e-5
-0.194, -4.529e-5
-0.193, -4.498e-5
-0.192, -4.468e-5
-0.191, -4.440e-5
-0.190, -4.413e-5
-0.189, -4.388e-5
-0.188, -4.364e-5
-0.187, -4.341e-5
-0.186, -4.318e-5
-0.185, -4.296e-5
-0.184, -4.274e-5
-0.183, -4.252e-5
-0.182, -4.231e-5
-0.181, -4.211e-5
-0.180, -4.192e-5
-0.179, -4.175e-5
-0.178, -4.157e-5
-0.177, -4.138e-5
-0.176, -4.118e-5
-0.175, -4.098e-5
-0.174, -4.080e-5
-0.173, -4.064e-5
-0.172, -4.048e-5
-0.171, -4.033e-5
-0.170, -4.016e-5
-0.169, -3.998e-5
-0.168, -3.979e-5
-0.167, -3.961e-5
-0.166, -3.945e-5
-0.165, -3.929e-5
-0.164, -3.914e-5
-0.163, -3.899e-5
-0.162, -3.883e-5
-0.161, -3.869e-5
-0.160, -3.854e-5
-0.159, -3.841e-5
-0.158, -3.829e-5
-0.157, -3.817e-5
-0.156, -3.805e-5
-0.155, -3.793e-5
-0.154, -3.780e-5
-0.153, -3.767e-5
-0.152, -3.753e-5
-0.151, -3.739e-5
-0.150, -3.725e-5
-0.149, -3.712e-5
-0.148, -3.699e-5
-0.147, -3.687e-5
-0.146, -3.675e-5
-0.145, -3.663e-5
-0.144, -3.651e-5
-0.143, -3.638e-5
-0.142, -3.625e-5
-0.141, -3.612e-5
-0.140, -3.600e-5
-0.139, -3.589e-5
-0.138, -3.579e-5
-0.137, -3.569e-5
-0.136, -3.560e-5
-0.135, -3.549e-5
-0.134, -3.538e-5
-0.133, -3.526e-5
-0.132, -3.514e-5
-0.131, -3.502e-5
-0.130, -3.490e-5
-0.129, -3.479e-5
-0.128, -3.468e-5
-0.127, -3.457e-5
-0.126, -3.448e-5
-0.125, -3.438e-5
-0.124, -3.429e-5
-0.123, -3.418e-5
-0.122, -3.407e-5
-0.121, -3.397e-5
-0.120, -3.386e-5
-0.119, -3.377e-5
-0.118, -3.367e-5
-0.117, -3.358e-5
-0.116, -3.349e-5
-0.115, -3.341e-5
-0.114, -3.332e-5
-0.113, -3.323e-5
-0.112, -3.314e-5
-0.111, -3.305e-5
-0.110, -3.295e-5
-0.109, -3.285e-5
-0.108, -3.275e-5
-0.107, -3.265e-5
-0.106, -3.256e-5
-0.105, -3.247e-5
-0.104, -3.238e-5
-0.103, -3.230e-5
-0.102, -3.222e-5
-0.101, -3.214e-5
-0.100, -3.205e-5
-0.099, -3.197e-5
-0.098, -3.189e-5
-0.097, -3.180e-5
-0.096, -3.171e-5
-0.095, -3.162e-5
-0.094, -3.153e-5
-0.093, -3.145e-5
-0.092, -3.136e-5
-0.091, -3.128e-5
-0.090, -3.120e-5
-0.089, -3.113e-5
-0.088, -3.105e-5
-0.087, -3.098e-5
-0.086, -3.092e-5
-0.085, -3.085e-5
-0.084, -3.078e-5
-0.083, -3.072e-5
-0.082, -3.065e-5
-0.081, -3.057e-5
-0.080, -3.050e-5
-0.079, -3.042e-5
-0.078, -3.034e-5
-0.077, -3.026e-5
-0.076, -3.018e-5
-0.075, -3.009e-5
-0.074, -3.001e-5
-0.073, -2.993e-5
-0.072, -2.985e-5
-0.071, -2.977e-5
-0.070, -2.970e-5
-0.069, -2.963e-5
-0.068, -2.956e-5
-0.067, -2.950e-5
-0.066, -2.943e-5
-0.065, -2.936e-5
-0.064, -2.929e-5
-0.063, -2.922e-5
-0.062, -2.915e-5
-0.061, -2.908e-5
-0.060, -2.900e-5
-0.059, -2.893e-5
-0.058, -2.886e-5
-0.057, -2.879e-5
-0.056, -2.872e-5
-0.055, -2.866e-5
-0.054, -2.860e-5
-0.053, -2.854e-5
-0.052, -2.849e-5
-0.051, -2.843e-5
-0.050, -2.837e-5
-0.049, -2.831e-5
-0.048, -2.825e-5
-0.047, -2.819e-5
-0.046, -2.812e-5
-0.045, -2.805e-5
-0.044, -2.798e-5
-0.043, -2.791e-5
-0.042, -2.783e-5
-0.041, -2.776e-5
-0.040, -2.769e-5
-0.039, -2.762e-5
-0.038, -2.756e-5
-0.037, -2.750e-5
-0.036, -2.744e-5
-0.035, -2.737e-5
-0.034, -2.730e-5
-0.033, -2.723e-5
-0.032, -2.717e-5
-0.031, -2.711e-5
-0.030, -2.705e-5
-0.029, -2.699e-5
-0.028, -2.693e-5
-0.027, -2.686e-5
-0.026, -2.679e-5
-0.025, -2.673e-5
-0.024, -2.666e-5
-0.023, -2.659e-5
-0.022, -2.652e-5
-0.021, -2.645e-5
-0.020, -2.638e-5
-0.019, -2.631e-5
-0.018, -2.625e-5
-0.017, -2.619e-5
-0.016, -2.613e-5
-0.015, -2.607e-5
-0.014, -2.602e-5
-0.013, -2.598e-5
-0.012, -2.594e-5
-0.011, -2.590e-5
-0.010, -2.586e-5
-0.009, -2.582e-5
-0.008, -2.577e-5
-0.007, -2.573e-5
-0.006, -2.567e-5
-0.005, -2.561e-5
-0.004, -2.554e-5
-0.003, -2.546e-5
-0.002, -2.539e-5
-0.001, -2.531e-5
0.000, -2.524e-5
0.001, -2.517e-5
0.002, -2.510e-5
0.003, -2.503e-5
0.004, -2.495e-5
0.005, -2.488e-5
0.006, -2.482e-5
0.007, -2.475e-5
0.008, -2.470e-5
0.009, -2.464e-5
0.010, -2.459e-5
0.011, -2.452e-5
0.012, -2.446e-5
0.013, -2.439e-5
0.014, -2.433e-5
0.015, -2.426e-5
0.016, -2.419e-5
0.017, -2.412e-5
0.018, -2.404e-5
0.019, -2.397e-5
0.020, -2.390e-5
0.021, -2.384e-5
0.022, -2.377e-5
0.023, -2.371e-5
0.024, -2.364e-5
0.025, -2.358e-5
0.026, -2.352e-5
0.027, -2.346e-5
0.028, -2.339e-5
0.029, -2.331e-5
0.030, -2.323e-5
0.031, -2.315e-5
0.032, -2.307e-5
0.033, -2.298e-5
0.034, -2.290e-5
0.035, -2.281e-5
0.036, -2.273e-5
0.037, -2.264e-5
0.038, -2.256e-5
0.039, -2.248e-5
0.040, -2.240e-5
0.041, -2.232e-5
0.042, -2.223e-5
0.043, -2.214e-5
0.044, -2.205e-5
0.045, -2.195e-5
0.046, -2.184e-5
0.047, -2.174e-5
0.048, -2.164e-5
0.049, -2.153e-5
0.050, -2.143e-5
0.051, -2.133e-5
0.052, -2.123e-5
0.053, -2.114e-5
0.054, -2.104e-5
0.055, -2.095e-5
0.056, -2.083e-5
0.057, -2.071e-5
0.058, -2.057e-5
0.059, -2.043e-5
0.060, -2.029e-5
0.061, -2.016e-5
0.062, -2.004e-5
0.063, -1.993e-5
0.064, -1.981e-5
0.065, -1.970e-5
0.066, -1.959e-5
0.067, -1.947e-5
0.068, -1.934e-5
0.069, -1.920e-5
0.070, -1.906e-5
0.071, -1.892e-5
0.072, -1.880e-5
0.073, -1.870e-5
0.074, -1.861e-5
0.075, -1.851e-5
0.076, -1.840e-5
0.077, -1.826e-5
0.078, -1.810e-5
0.079, -1.793e-5
0.080, -1.775e-5
0.081, -1.758e-5
0.082, -1.740e-5
0.083, -1.721e-5
0.084, -1.702e-5
0.085, -1.682e-5
0.086, -1.662e-5
0.087, -1.642e-5
0.088, -1.622e-5
0.089, -1.601e-5
0.090, -1.578e-5
0.091, -1.554e-5
0.092, -1.529e-5
0.093, -1.505e-5
0.094, -1.480e-5
0.095, -1.454e-5
0.096, -1.427e-5
0.097, -1.399e-5
0.098, -1.371e-5
0.099, -1.343e-5
0.100, -1.314e-5
0.101, -1.285e-5
0.102, -1.255e-5
0.103, -1.225e-5
0.104, -1.194e-5
0.105, -1.161e-5
0.106, -1.126e-5
0.107, -1.090e-5
0.108, -1.053e-5
0.109, -1.015e-5
0.110, -9.765e-6
0.111, -9.372e-6
0.112, -8.976e-6
0.113, -8.567e-6
0.114, -8.141e-6
0.115, -7.707e-6
0.116, -7.266e-6
0.117, -6.816e-6
0.118, -6.358e-6
0.119, -5.884e-6
0.120, -5.389e-6
0.121, -4.878e-6
0.122, -4.354e-6
0.123, -3.818e-6
0.124, -3.276e-6
0.125, -2.729e-6
0.126, -2.169e-6
0.127, -1.593e-6
0.128, -9.967e-7
0.129, -3.805e-7
0.130, 2.491e-7
0.131, 8.832e-7
0.132, 1.526e-6
0.133, 2.188e-6
0.134, 2.869e-6
0.135, 3.565e-6
0.136, 4.279e-6
0.137, 5.004e-6
0.138, 5.740e-6
0.139, 6.500e-6
0.140, 7.279e-6
0.141, 8.075e-6
0.142, 8.899e-6
0.143, 9.744e-6
0.144, 1.060e-5
0.145, 1.148e-5
0.146, 1.236e-5
0.147, 1.326e-5
0.148, 1.419e-5
0.149, 1.513e-5
0.150, 1.609e-5
0.151, 1.706e-5
0.152, 1.804e-5
0.153, 1.905e-5
0.154, 2.007e-5
0.155, 2.111e-5
0.156, 2.216e-5
0.157, 2.324e-5
0.158, 2.434e-5
0.159, 2.547e-5
0.160, 2.660e-5
0.161, 2.774e-5
0.162, 2.890e-5
0.163, 3.008e-5
0.164, 3.129e-5
0.165, 3.251e-5
0.166, 3.376e-5
0.167, 3.501e-5
0.168, 3.628e-5
0.169, 3.756e-5
0.170, 3.886e-5
0.171, 4.018e-5
0.172, 4.152e-5
0.173, 4.288e-5
0.174, 4.426e-5
0.175, 4.565e-5
0.176, 4.704e-5
0.177, 4.843e-5
0.178, 4.985e-5
0.179, 5.129e-5
0.180, 5.274e-5
0.181, 5.422e-5
0.182, 5.570e-5
0.183, 5.718e-5
0.184, 5.867e-5
0.185, 6.017e-5
0.186, 6.168e-5
0.187, 6.321e-5
0.188, 6.475e-5
0.189, 6.628e-5
0.190, 6.783e-5
0.191, 6.938e-5
0.192, 7.093e-5
0.193, 7.250e-5
0.194, 7.407e-5
0.195, 7.564e-5
0.196, 7.720e-5
0.197, 7.877e-5
0.198, 8.033e-5
0.199, 8.191e-5
0.200, 8.350e-5
0.201, 8.509e-5
0.202, 8.670e-5
0.203, 8.832e-5
0.204, 8.997e-5
0.205, 9.163e-5
0.206, 9.327e-5
0.207, 9.486e-5
0.208, 9.642e-5
0.209, 9.796e-5
0.210, 9.950e-5
0.211, 1.011e-4
0.212, 1.026e-4
0.213, 1.042e-4
0.214, 1.057e-4
0.215, 1.073e-4
0.216, 1.088e-4
0.217, 1.103e-4
0.218, 1.118e-4
0.219, 1.133e-4
0.220, 1.148e-4
0.221, 1.163e-4
0.222, 1.178e-4
0.223, 1.192e-4
0.224, 1.207e-4
0.225, 1.221e-4
0.226, 1.235e-4
0.227, 1.249e-4
0.228, 1.263e-4
0.229, 1.277e-4
0.230, 1.290e-4
0.231, 1.303e-4
0.232, 1.316e-4
0.233, 1.329e-4
0.234, 1.342e-4
0.235, 1.354e-4
0.236, 1.367e-4
0.237, 1.378e-4
0.238, 1.390e-4
0.239, 1.402e-4
0.240, 1.413e-4
0.241, 1.424e-4
0.242, 1.435e-4
0.243, 1.446e-4
0.244, 1.456e-4
0.245, 1.466e-4
0.246, 1.476e-4
0.247, 1.485e-4
0.248, 1.495e-4
0.249, 1.504e-4
0.250, 1.513e-4
0.251, 1.521e-4
0.252, 1.530e-4
0.253, 1.537e-4
0.254, 1.545e-4
0.255, 1.552e-4
0.256, 1.559e-4
0.257, 1.566e-4
0.258, 1.572e-4
0.259, 1.578e-4
0.260, 1.584e-4
0.261, 1.589e-4
0.262, 1.595e-4
0.263, 1.600e-4
0.264, 1.604e-4
0.265, 1.609e-4
0.266, 1.613e-4
0.267, 1.616e-4
0.268, 1.620e-4
0.269, 1.623e-4
0.270, 1.626e-4
0.271, 1.628e-4
0.272, 1.631e-4
0.273, 1.633e-4
0.274, 1.635e-4
0.275, 1.637e-4
0.276, 1.638e-4
0.277, 1.639e-4
0.278, 1.640e-4
0.279, 1.640e-4
0.280, 1.640e-4
0.281, 1.640e-4
0.282, 1.640e-4
0.283, 1.640e-4
0.284, 1.639e-4
0.285, 1.638e-4
0.286, 1.637e-4
0.287, 1.635e-4
0.288, 1.634e-4
0.289, 1.632e-4
0.290, 1.630e-4
0.291, 1.628e-4
0.292, 1.626e-4
0.293, 1.623e-4
0.294, 1.621e-4
0.295, 1.618e-4
0.296, 1.615e-4
0.297, 1.612e-4
0.298, 1.608e-4
0.299, 1.605e-4
0.300, 1.601e-4
0.301, 1.597e-4
0.302, 1.594e-4
0.303, 1.590e-4
0.304, 1.586e-4
0.305, 1.582e-4
0.306, 1.577e-4
0.307, 1.573e-4
0.308, 1.569e-4
0.309, 1.564e-4
0.310, 1.560e-4
0.311, 1.555e-4
0.312, 1.550e-4
0.313, 1.545e-4
0.314, 1.541e-4
0.315, 1.536e-4
0.316, 1.531e-4
0.317, 1.526e-4
0.318, 1.521e-4
0.319, 1.515e-4
0.320, 1.510e-4
0.321, 1.505e-4
0.322, 1.500e-4
0.323, 1.494e-4
0.324, 1.489e-4
0.325, 1.484e-4
0.326, 1.479e-4
0.327, 1.473e-4
0.328, 1.468e-4
0.329, 1.463e-4
0.330, 1.457e-4
0.331, 1.452e-4
0.332, 1.446e-4
0.333, 1.441e-4
0.334, 1.436e-4
0.335, 1.430e-4
0.336, 1.425e-4
0.337, 1.419e-4
0.338, 1.414e-4
0.339, 1.408e-4
0.340, 1.403e-4
0.341, 1.397e-4
0.342, 1.392e-4
0.343, 1.387e-4
0.344, 1.381e-4
0.345, 1.376e-4
0.346, 1.371e-4
0.347, 1.366e-4
0.348, 1.360e-4
0.349, 1.355e-4
0.350, 1.350e-4
0.351, 1.345e-4
0.352, 1.340e-4
0.353, 1.334e-4
0.354, 1.329e-4
0.355, 1.324e-4
0.356, 1.319e-4
0.357, 1.314e-4
0.358, 1.309e-4
0.359, 1.303e-4
0.360, 1.299e-4
0.361, 1.294e-4
0.362, 1.289e-4
0.363, 1.284e-4
0.364, 1.279e-4
0.365, 1.273e-4
0.366, 1.268e-4
0.367, 1.264e-4
0.368, 1.259e-4
0.369, 1.254e-4
0.370, 1.249e-4
0.371, 1.245e-4
0.372, 1.240e-4
0.373, 1.235e-4
0.374, 1.231e-4
0.375, 1.226e-4
0.376, 1.222e-4
0.377, 1.217e-4
0.378, 1.213e-4
0.379, 1.208e-4
0.380, 1.204e-4
0.381, 1.200e-4
0.382, 1.195e-4
0.383, 1.191e-4
0.384, 1.187e-4
0.385, 1.183e-4
0.386, 1.179e-4
0.387, 1.174e-4
0.388, 1.170e-4
0.389, 1.166e-4
0.390, 1.162e-4
0.391, 1.158e-4
0.392, 1.154e-4
0.393, 1.150e-4
0.394, 1.146e-4
0.395, 1.142e-4
0.396, 1.138e-4
0.397, 1.134e-4
0.398, 1.130e-4
0.399, 1.127e-4
0.400, 1.123e-4
0.401, 1.119e-4
0.402, 1.115e-4
0.403, 1.111e-4
0.404, 1.108e-4
0.405, 1.104e-4
0.406, 1.101e-4
0.407, 1.097e-4
0.408, 1.093e-4
0.409, 1.089e-4
0.410, 1.086e-4
0.411, 1.082e-4
0.412, 1.079e-4
0.413, 1.076e-4
0.414, 1.072e-4
0.415, 1.069e-4
0.416, 1.065e-4
0.417, 1.062e-4
0.418, 1.059e-4
0.419, 1.056e-4
0.420, 1.052e-4
0.421, 1.049e-4
0.422, 1.046e-4
0.423, 1.043e-4
0.424, 1.040e-4
0.425, 1.036e-4
0.426, 1.033e-4
0.427, 1.030e-4
0.428, 1.027e-4
0.429, 1.024e-4
0.430, 1.021e-4
0.431, 1.018e-4
0.432, 1.015e-4
0.433, 1.012e-4
0.434, 1.009e-4
0.435, 1.006e-4
0.436, 1.003e-4
0.437, 1.000e-4
0.438, 9.973e-5
0.439, 9.944e-5
0.440, 9.916e-5
0.441, 9.889e-5
0.442, 9.862e-5
0.443, 9.836e-5
0.444, 9.809e-5
0.445, 9.781e-5
0.446, 9.754e-5
0.447, 9.726e-5
0.448, 9.698e-5
0.449, 9.670e-5
0.450, 9.642e-5
0.451, 9.616e-5
0.452, 9.591e-5
0.453, 9.567e-5
0.454, 9.542e-5
0.455, 9.517e-5
0.456, 9.492e-5
0.457, 9.467e-5
0.458, 9.441e-5
0.459, 9.415e-5
0.460, 9.390e-5
0.461, 9.365e-5
0.462, 9.341e-5
0.463, 9.317e-5
0.464, 9.293e-5
0.465, 9.270e-5
0.466, 9.246e-5
0.467, 9.223e-5
0.468, 9.198e-5
0.469, 9.172e-5
0.470, 9.148e-5
0.471, 9.125e-5
0.472, 9.104e-5
0.473, 9.083e-5
0.474, 9.060e-5
0.475, 9.038e-5
0.476, 9.015e-5
0.477, 8.993e-5
0.478, 8.972e-5
0.479, 8.950e-5
0.480, 8.928e-5
0.481, 8.905e-5
0.482, 8.883e-5
0.483, 8.862e-5
0.484, 8.842e-5
0.485, 8.821e-5
0.486, 8.800e-5
0.487, 8.779e-5
0.488, 8.758e-5
0.489, 8.738e-5
0.490, 8.717e-5
0.491, 8.696e-5
0.492, 8.675e-5
0.493, 8.654e-5
0.494, 8.634e-5
0.495, 8.616e-5
0.496, 8.598e-5
0.497, 8.579e-5
0.498, 8.560e-5
0.499, 8.540e-5
0.500, 8.522e-5
0.501, 8.508e-5
0.502, 8.496e-5
0.503, 8.484e-5
0.504, 8.471e-5
0.505, 8.455e-5
0.506, 8.436e-5
0.507, 8.416e-5
0.508, 8.396e-5
0.509, 8.378e-5
0.510, 8.360e-5
0.511, 8.341e-5
0.512, 8.322e-5
0.513, 8.304e-5
0.514, 8.285e-5
0.515, 8.265e-5
0.516, 8.244e-5
0.517, 8.221e-5
0.518, 8.198e-5
0.519, 8.176e-5
0.520, 8.157e-5
0.521, 8.141e-5
0.522, 8.125e-5
0.523, 8.109e-5
0.524, 8.093e-5
0.525, 8.077e-5
0.526, 8.059e-5
0.527, 8.042e-5
0.528, 8.025e-5
0.529, 8.010e-5
0.530, 7.995e-5
0.531, 7.981e-5
0.532, 7.966e-5
0.533, 7.951e-5
0.534, 7.936e-5
0.535, 7.921e-5
0.536, 7.907e-5
0.537, 7.894e-5
0.538, 7.881e-5
0.539, 7.868e-5
0.540, 7.854e-5
0.541, 7.840e-5
0.542, 7.826e-5
0.543, 7.811e-5
0.544, 7.796e-5
0.545, 7.782e-5
0.546, 7.768e-5
0.547, 7.755e-5
0.548, 7.741e-5
0.549, 7.726e-5
0.550, 7.709e-5
0.551, 7.693e-5
0.552, 7.678e-5
0.553, 7.666e-5
0.554, 7.655e-5
0.555, 7.645e-5
0.556, 7.635e-5
0.557, 7.622e-5
0.558, 7.610e-5
0.559, 7.596e-5
0.560, 7.582e-5
0.561, 7.569e-5
0.562, 7.556e-5
0.563, 7.545e-5
0.564, 7.534e-5
0.565, 7.525e-5
0.566, 7.515e-5
0.567, 7.504e-5
0.568, 7.491e-5
0.569, 7.478e-5
0.570, 7.464e-5
0.571, 7.450e-5
0.572, 7.437e-5
0.573, 7.424e-5
0.574, 7.412e-5
0.575, 7.401e-5
0.576, 7.389e-5
0.577, 7.376e-5
0.578, 7.361e-5
0.579, 7.345e-5
0.580, 7.327e-5
0.581, 7.311e-5
0.582, 7.298e-5
0.583, 7.286e-5
0.584, 7.275e-5
0.585, 7.263e-5
0.586, 7.250e-5
0.587, 7.237e-5
0.588, 7.222e-5
0.589, 7.208e-5
0.590, 7.195e-5
0.591, 7.183e-5
0.592, 7.172e-5
0.593, 7.163e-5
0.594, 7.153e-5
0.595, 7.143e-5
0.596, 7.132e-5
0.597, 7.120e-5
0.598, 7.109e-5
0.599, 7.099e-5
0.600, 7.088e-5
0.601, 7.077e-5
0.602, 7.066e-5
0.603, 7.055e-5
0.604, 7.044e-5
0.605, 7.033e-5
0.606, 7.023e-5
0.607, 7.013e-5
0.608, 7.002e-5
0.609, 6.991e-5
0.610, 6.980e-5
0.611, 6.968e-5
0.612, 6.958e-5
0.613, 6.948e-5
0.614, 6.940e-5
0.615, 6.933e-5
0.616, 6.924e-5
0.617, 6.914e-5
0.618, 6.904e-5
0.619, 6.895e-5
0.620, 6.885e-5
0.621, 6.876e-5
0.622, 6.866e-5
0.623, 6.856e-5
0.624, 6.846e-5
0.625, 6.837e-5
0.626, 6.828e-5
0.627, 6.819e-5
0.628, 6.809e-5
0.629, 6.800e-5
0.630, 6.791e-5
0.631, 6.782e-5
0.632, 6.773e-5
0.633, 6.764e-5
0.634, 6.754e-5
0.635, 6.743e-5
0.636, 6.733e-5
0.637, 6.723e-5
0.638, 6.714e-5
0.639, 6.705e-5
0.640, 6.697e-5
0.641, 6.689e-5
0.642, 6.682e-5
0.643, 6.675e-5
0.644, 6.669e-5
0.645, 6.662e-5
0.646, 6.654e-5
0.647, 6.646e-5
0.648, 6.637e-5
0.649, 6.629e-5
0.650, 6.621e-5
0.651, 6.613e-5
0.652, 6.605e-5
0.653, 6.597e-5
0.654, 6.589e-5
0.655, 6.581e-5
0.656, 6.573e-5
0.657, 6.565e-5
0.658, 6.558e-5
0.659, 6.550e-5
0.660, 6.543e-5
0.661, 6.536e-5
0.662, 6.528e-5
0.663, 6.520e-5
0.664, 6.512e-5
0.665, 6.504e-5
0.666, 6.496e-5
0.667, 6.488e-5
0.668, 6.480e-5
0.669, 6.472e-5
0.670, 6.464e-5
0.671, 6.458e-5
0.672, 6.451e-5
0.673, 6.445e-5
0.674, 6.440e-5
0.675, 6.434e-5
0.676, 6.428e-5
0.677, 6.423e-5
0.678, 6.416e-5
0.679, 6.410e-5
0.680, 6.403e-5
0.681, 6.396e-5
0.682, 6.390e-5
0.683, 6.383e-5
0.684, 6.377e-5
0.685, 6.370e-5
0.686, 6.363e-5
0.687, 6.355e-5
0.688, 6.348e-5
0.689, 6.341e-5
0.690, 6.334e-5
0.691, 6.328e-5
0.692, 6.321e-5
0.693, 6.315e-5
0.694, 6.308e-5
0.695, 6.301e-5
0.696, 6.295e-5
0.697, 6.289e-5
0.698, 6.283e-5
0.699, 6.278e-5
0.700, 6.272e-5
0.701, 6.266e-5
0.702, 6.259e-5
0.703, 6.252e-5
0.704, 6.245e-5
0.705, 6.238e-5
0.706, 6.231e-5
0.707, 6.225e-5
0.708, 6.219e-5
0.709, 6.213e-5
0.710, 6.208e-5
0.711, 6.203e-5
0.712, 6.198e-5
0.713, 6.194e-5
0.714, 6.189e-5
0.715, 6.185e-5
0.716, 6.180e-5
0.717, 6.175e-5
0.718, 6.170e-5
0.719, 6.166e-5
0.720, 6.162e-5
0.721, 6.158e-5
0.722, 6.154e-5
0.723, 6.149e-5
0.724, 6.145e-5
0.725, 6.140e-5
0.726, 6.136e-5
0.727, 6.132e-5
0.728, 6.128e-5
0.729, 6.123e-5
0.730, 6.119e-5
0.731, 6.114e-5
0.732, 6.109e-5
0.733, 6.104e-5
0.734, 6.099e-5
0.735, 6.095e-5
0.736, 6.090e-5
0.737, 6.086e-5
0.738, 6.082e-5
0.739, 6.078e-5
0.740, 6.073e-5
0.741, 6.070e-5
0.742, 6.066e-5
0.743, 6.062e-5
0.744, 6.059e-5
0.745, 6.056e-5
0.746, 6.052e-5
0.747, 6.049e-5
0.748, 6.045e-5
0.749, 6.041e-5
0.750, 6.037e-5
0.751, 6.033e-5
0.752, 6.029e-5
0.753, 6.025e-5
0.754, 6.021e-5
0.755, 6.018e-5
0.756, 6.014e-5
0.757, 6.010e-5
0.758, 6.005e-5
0.759, 6.002e-5
0.760, 5.998e-5
0.761, 5.995e-5
0.762, 5.992e-5
0.763, 5.989e-5
0.764, 5.986e-5
0.765, 5.983e-5
0.766, 5.980e-5
0.767, 5.976e-5
0.768, 5.973e-5
0.769, 5.970e-5
0.770, 5.967e-5
0.771, 5.964e-5
0.772, 5.961e-5
0.773, 5.959e-5
0.774, 5.956e-5
0.775, 5.954e-5
0.776, 5.952e-5
0.777, 5.950e-5
0.778, 5.947e-5
0.779, 5.944e-5
0.780, 5.942e-5
0.781, 5.940e-5
0.782, 5.938e-5
0.783, 5.936e-5
0.784, 5.933e-5
0.785, 5.931e-5
0.786, 5.929e-5
0.787, 5.929e-5
0.788, 5.930e-5
0.789, 5.929e-5
0.790, 5.926e-5
0.791, 5.922e-5
0.792, 5.918e-5
0.793, 5.915e-5
0.794, 5.912e-5
0.795, 5.911e-5
0.796, 5.909e-5
0.797, 5.907e-5
0.798, 5.906e-5
0.799, 5.905e-5
0.800, 5.747e-5
0.799, 5.558e-5
0.798, 5.407e-5
0.797, 5.294e-5
0.796, 5.232e-5
0.795, 5.195e-5
0.794, 5.168e-5
0.793, 5.136e-5
0.792, 5.106e-5
0.791, 5.078e-5
0.790, 5.051e-5
0.789, 5.024e-5
0.788, 4.998e-5
0.787, 4.975e-5
0.786, 4.954e-5
0.785, 4.935e-5
0.784, 4.916e-5
0.783, 4.897e-5
0.782, 4.879e-5
0.781, 4.862e-5
0.780, 4.846e-5
0.779, 4.831e-5
0.778, 4.817e-5
0.777, 4.804e-5
0.776, 4.791e-5
0.775, 4.777e-5
0.774, 4.762e-5
0.773, 4.746e-5
0.772, 4.731e-5
0.771, 4.717e-5
0.770, 4.705e-5
0.769, 4.693e-5
0.768, 4.681e-5
0.767, 4.669e-5
0.766, 4.657e-5
0.765, 4.646e-5
0.764, 4.637e-5
0.763, 4.627e-5
0.762, 4.617e-5
0.761, 4.604e-5
0.760, 4.590e-5
0.759, 4.577e-5
0.758, 4.566e-5
0.757, 4.557e-5
0.756, 4.550e-5
0.755, 4.544e-5
0.754, 4.538e-5
0.753, 4.533e-5
0.752, 4.529e-5
0.751, 4.525e-5
0.750, 4.521e-5
0.749, 4.516e-5
0.748, 4.506e-5
0.747, 4.493e-5
0.746, 4.477e-5
0.745, 4.460e-5
0.744, 4.444e-5
0.743, 4.429e-5
0.742, 4.417e-5
0.741, 4.406e-5
0.740, 4.396e-5
0.739, 4.387e-5
0.738, 4.377e-5
0.737, 4.369e-5
0.736, 4.361e-5
0.735, 4.353e-5
0.734, 4.346e-5
0.733, 4.338e-5
0.732, 4.330e-5
0.731, 4.321e-5
0.730, 4.313e-5
0.729, 4.304e-5
0.728, 4.295e-5
0.727, 4.287e-5
0.726, 4.279e-5
0.725, 4.271e-5
0.724, 4.264e-5
0.723, 4.257e-5
0.722, 4.251e-5
0.721, 4.244e-5
0.720, 4.238e-5
0.719, 4.233e-5
0.718, 4.227e-5
0.717, 4.222e-5
0.716, 4.215e-5
0.715, 4.209e-5
0.714, 4.202e-5
0.713, 4.195e-5
0.712, 4.188e-5
0.711, 4.181e-5
0.710, 4.174e-5
0.709, 4.168e-5
0.708, 4.161e-5
0.707, 4.155e-5
0.706, 4.149e-5
0.705, 4.143e-5
0.704, 4.137e-5
0.703, 4.131e-5
0.702, 4.126e-5
0.701, 4.120e-5
0.700, 4.114e-5
0.699, 4.108e-5
0.698, 4.103e-5
0.697, 4.098e-5
0.696, 4.092e-5
0.695, 4.086e-5
0.694, 4.080e-5
0.693, 4.075e-5
0.692, 4.069e-5
0.691, 4.063e-5
0.690, 4.056e-5
0.689, 4.050e-5
0.688, 4.043e-5
0.687, 4.035e-5
0.686, 4.028e-5
0.685, 4.022e-5
0.684, 4.017e-5
0.683, 4.013e-5
0.682, 4.012e-5
0.681, 4.012e-5
0.680, 4.015e-5
0.679, 4.016e-5
0.678, 4.016e-5
0.677, 4.013e-5
0.676, 4.006e-5
0.675, 3.998e-5
0.674, 3.990e-5
0.673, 3.982e-5
0.672, 3.976e-5
0.671, 3.970e-5
0.670, 3.963e-5
0.669, 3.955e-5
0.668, 3.947e-5
0.667, 3.938e-5
0.666, 3.930e-5
0.665, 3.923e-5
0.664, 3.917e-5
0.663, 3.912e-5
0.662, 3.906e-5
0.661, 3.900e-5
0.660, 3.895e-5
0.659, 3.889e-5
0.658, 3.885e-5
0.657, 3.880e-5
0.656, 3.875e-5
0.655, 3.870e-5
0.654, 3.865e-5
0.653, 3.859e-5
0.652, 3.854e-5
0.651, 3.848e-5
0.650, 3.843e-5
0.649, 3.837e-5
0.648, 3.831e-5
0.647, 3.825e-5
0.646, 3.819e-5
0.645, 3.813e-5
0.644, 3.807e-5
0.643, 3.802e-5
0.642, 3.797e-5
0.641, 3.792e-5
0.640, 3.788e-5
0.639, 3.783e-5
0.638, 3.777e-5
0.637, 3.773e-5
0.636, 3.768e-5
0.635, 3.764e-5
0.634, 3.760e-5
0.633, 3.756e-5
0.632, 3.753e-5
0.631, 3.749e-5
0.630, 3.745e-5
0.629, 3.741e-5
0.628, 3.738e-5
0.627, 3.734e-5
0.626, 3.731e-5
0.625, 3.727e-5
0.624, 3.725e-5
0.623, 3.722e-5
0.622, 3.720e-5
0.621, 3.717e-5
0.620, 3.713e-5
0.619, 3.707e-5
0.618, 3.702e-5
0.617, 3.696e-5
0.616, 3.690e-5
0.615, 3.684e-5
0.614, 3.679e-5
0.613, 3.675e-5
0.612, 3.672e-5
0.611, 3.669e-5
0.610, 3.665e-5
0.609, 3.661e-5
0.608, 3.657e-5
0.607, 3.653e-5
0.606, 3.649e-5
0.605, 3.645e-5
0.604, 3.641e-5
0.603, 3.638e-5
0.602, 3.634e-5
0.601, 3.630e-5
0.600, 3.626e-5
0.599, 3.621e-5
0.598, 3.617e-5
0.597, 3.613e-5
0.596, 3.610e-5
0.595, 3.606e-5
0.594, 3.601e-5
0.593, 3.597e-5
0.592, 3.592e-5
0.591, 3.587e-5
0.590, 3.582e-5
0.589, 3.577e-5
0.588, 3.573e-5
0.587, 3.570e-5
0.586, 3.566e-5
0.585, 3.562e-5
0.584, 3.558e-5
0.583, 3.556e-5
0.582, 3.555e-5
0.581, 3.555e-5
0.580, 3.554e-5
0.579, 3.551e-5
0.578, 3.546e-5
0.577, 3.540e-5
0.576, 3.535e-5
0.575, 3.530e-5
0.574, 3.526e-5
0.573, 3.522e-5
0.572, 3.518e-5
0.571, 3.513e-5
0.570, 3.508e-5
0.569, 3.504e-5
0.568, 3.499e-5
0.567, 3.495e-5
0.566, 3.492e-5
0.565, 3.487e-5
0.564, 3.483e-5
0.563, 3.479e-5
0.562, 3.475e-5
0.561, 3.470e-5
0.560, 3.464e-5
0.559, 3.458e-5
0.558, 3.451e-5
0.557, 3.445e-5
0.556, 3.437e-5
0.555, 3.429e-5
0.554, 3.421e-5
0.553, 3.413e-5
0.552, 3.406e-5
0.551, 3.401e-5
0.550, 3.397e-5
0.549, 3.393e-5
0.548, 3.389e-5
0.547, 3.385e-5
0.546, 3.380e-5
0.545, 3.376e-5
0.544, 3.372e-5
0.543, 3.368e-5
0.542, 3.364e-5
0.541, 3.361e-5
0.540, 3.356e-5
0.539, 3.351e-5
0.538, 3.345e-5
0.537, 3.340e-5
0.536, 3.336e-5
0.535, 3.331e-5
0.534, 3.327e-5
0.533, 3.322e-5
0.532, 3.317e-5
0.531, 3.312e-5
0.530, 3.307e-5
0.529, 3.303e-5
0.528, 3.298e-5
0.527, 3.294e-5
0.526, 3.289e-5
0.525, 3.285e-5
0.524, 3.281e-5
0.523, 3.277e-5
0.522, 3.274e-5
0.521, 3.270e-5
0.520, 3.266e-5
0.519, 3.263e-5
0.518, 3.259e-5
0.517, 3.256e-5
0.516, 3.252e-5
0.515, 3.248e-5
0.514, 3.246e-5
0.513, 3.243e-5
0.512, 3.240e-5
0.511, 3.236e-5
0.510, 3.231e-5
0.509, 3.226e-5
0.508, 3.221e-5
0.507, 3.217e-5
0.506, 3.213e-5
0.505, 3.209e-5
0.504, 3.205e-5
0.503, 3.200e-5
0.502, 3.196e-5
0.501, 3.191e-5
0.500, 3.187e-5
0.499, 3.184e-5
0.498, 3.182e-5
0.497, 3.181e-5
0.496, 3.181e-5
0.495, 3.181e-5
0.494, 3.179e-5
0.493, 3.173e-5
0.492, 3.164e-5
0.491, 3.155e-5
0.490, 3.146e-5
0.489, 3.140e-5
0.488, 3.135e-5
0.487, 3.131e-5
0.486, 3.127e-5
0.485, 3.123e-5
0.484, 3.119e-5
0.483, 3.115e-5
0.482, 3.110e-5
0.481, 3.106e-5
0.480, 3.101e-5
0.479, 3.096e-5
0.478, 3.092e-5
0.477, 3.087e-5
0.476, 3.083e-5
0.475, 3.078e-5
0.474, 3.073e-5
0.473, 3.068e-5
0.472, 3.063e-5
0.471, 3.058e-5
0.470, 3.053e-5
0.469, 3.048e-5
0.468, 3.043e-5
0.467, 3.039e-5
0.466, 3.034e-5
0.465, 3.030e-5
0.464, 3.026e-5
0.463, 3.022e-5
0.462, 3.018e-5
0.461, 3.014e-5
0.460, 3.010e-5
0.459, 3.006e-5
0.458, 3.002e-5
0.457, 2.997e-5
0.456, 2.992e-5
0.455, 2.988e-5
0.454, 2.983e-5
0.453, 2.979e-5
0.452, 2.974e-5
0.451, 2.969e-5
0.450, 2.965e-5
0.449, 2.960e-5
0.448, 2.955e-5
0.447, 2.950e-5
0.446, 2.945e-5
0.445, 2.940e-5
0.444, 2.935e-5
0.443, 2.930e-5
0.442, 2.925e-5
0.441, 2.920e-5
0.440, 2.915e-5
0.439, 2.911e-5
0.438, 2.906e-5
0.437, 2.902e-5
0.436, 2.897e-5
0.435, 2.893e-5
0.434, 2.888e-5
0.433, 2.884e-5
0.432, 2.879e-5
0.431, 2.874e-5
0.430, 2.868e-5
0.429, 2.863e-5
0.428, 2.858e-5
0.427, 2.853e-5
0.426, 2.848e-5
0.425, 2.842e-5
0.424, 2.837e-5
0.423, 2.831e-5
0.422, 2.826e-5
0.421, 2.820e-5
0.420, 2.814e-5
0.419, 2.808e-5
0.418, 2.802e-5
0.417, 2.796e-5
0.416, 2.791e-5
0.415, 2.786e-5
0.414, 2.782e-5
0.413, 2.778e-5
0.412, 2.774e-5
0.411, 2.770e-5
0.410, 2.767e-5
0.409, 2.763e-5
0.408, 2.757e-5
0.407, 2.751e-5
0.406, 2.744e-5
0.405, 2.737e-5
0.404, 2.731e-5
0.403, 2.726e-5
0.402, 2.721e-5
0.401, 2.716e-5
0.400, 2.710e-5
0.399, 2.703e-5
0.398, 2.696e-5
0.397, 2.688e-5
0.396, 2.681e-5
0.395, 2.675e-5
0.394, 2.669e-5
0.393, 2.663e-5
0.392, 2.658e-5
0.391, 2.651e-5
0.390, 2.645e-5
0.389, 2.638e-5
0.388, 2.632e-5
0.387, 2.625e-5
0.386, 2.618e-5
0.385, 2.611e-5
0.384, 2.604e-5
0.383, 2.597e-5
0.382, 2.589e-5
0.381, 2.582e-5
0.380, 2.573e-5
0.379, 2.565e-5
0.378, 2.557e-5
0.377, 2.550e-5
0.376, 2.542e-5
0.375, 2.535e-5
0.374, 2.528e-5
0.373, 2.521e-5
0.372, 2.514e-5
0.371, 2.506e-5
0.370, 2.498e-5
0.369, 2.489e-5
0.368, 2.480e-5
0.367, 2.471e-5
0.366, 2.462e-5
0.365, 2.453e-5
0.364, 2.443e-5
0.363, 2.434e-5
0.362, 2.424e-5
0.361, 2.415e-5
0.360, 2.406e-5
0.359, 2.396e-5
0.358, 2.386e-5
0.357, 2.375e-5
0.356, 2.364e-5
0.355, 2.352e-5
0.354, 2.339e-5
0.353, 2.326e-5
0.352, 2.315e-5
0.351, 2.304e-5
0.350, 2.293e-5
0.349, 2.283e-5
0.348, 2.272e-5
0.347, 2.260e-5
0.346, 2.248e-5
0.345, 2.234e-5
0.344, 2.220e-5
0.343, 2.206e-5
0.342, 2.192e-5
0.341, 2.178e-5
0.340, 2.164e-5
0.339, 2.150e-5
0.338, 2.135e-5
0.337, 2.120e-5
0.336, 2.104e-5
0.335, 2.086e-5
0.334, 2.069e-5
0.333, 2.053e-5
0.332, 2.037e-5
0.331, 2.021e-5
0.330, 2.004e-5
0.329, 1.985e-5
0.328, 1.966e-5
0.327, 1.946e-5
0.326, 1.926e-5
0.325, 1.904e-5
0.324, 1.882e-5
0.323, 1.858e-5
0.322, 1.833e-5
0.321, 1.810e-5
0.320, 1.787e-5
0.319, 1.764e-5
0.318, 1.742e-5
0.317, 1.719e-5
0.316, 1.696e-5
0.315, 1.670e-5
0.314, 1.643e-5
0.313, 1.613e-5
0.312, 1.584e-5
0.311, 1.555e-5
0.310, 1.527e-5
0.309, 1.499e-5
0.308, 1.469e-5
0.307, 1.436e-5
0.306, 1.401e-5
0.305, 1.365e-5
0.304, 1.329e-5
0.303, 1.294e-5
0.302, 1.259e-5
0.301, 1.222e-5
0.300, 1.184e-5
0.299, 1.144e-5
0.298, 1.103e-5
0.297, 1.062e-5
0.296, 1.020e-5
0.295, 9.769e-6
0.294, 9.318e-6
0.293, 8.845e-6
0.292, 8.363e-6
0.291, 7.880e-6
0.290, 7.390e-6
0.289, 6.886e-6
0.288, 6.370e-6
0.287, 5.836e-6
0.286, 5.292e-6
0.285, 4.735e-6
0.284, 4.164e-6
0.283, 3.577e-6
0.282, 2.987e-6
0.281, 2.391e-6
0.280, 1.787e-6
0.279, 1.167e-6
0.278, 5.232e-7
0.277, -1.546e-7
0.276, -8.550e-7
0.275, -1.572e-6
0.274, -2.297e-6
0.273, -3.029e-6
0.272, -3.770e-6
0.271, -4.531e-6
0.270, -5.316e-6
0.269, -6.124e-6
0.268, -6.950e-6
0.267, -7.791e-6
0.266, -8.644e-6
0.265, -9.514e-6
0.264, -1.041e-5
0.263, -1.133e-5
0.262, -1.226e-5
0.261, -1.320e-5
0.260, -1.416e-5
0.259, -1.513e-5
0.258, -1.612e-5
0.257, -1.713e-5
0.256, -1.816e-5
0.255, -1.920e-5
0.254, -2.026e-5
0.253, -2.135e-5
0.252, -2.245e-5
0.251, -2.358e-5
0.250, -2.472e-5
0.249, -2.587e-5
0.248, -2.704e-5
0.247, -2.824e-5
0.246, -2.946e-5
0.245, -3.070e-5
0.244, -3.195e-5
0.243, -3.321e-5
0.242, -3.449e-5
0.241, -3.577e-5
0.240, -3.706e-5
0.239, -3.836e-5
0.238, -3.968e-5
0.237, -4.103e-5
0.236, -4.241e-5
0.235, -4.382e-5
0.234, -4.524e-5
0.233, -4.668e-5
0.232, -4.812e-5
0.231, -4.957e-5
0.230, -5.103e-5
0.229, -5.251e-5
0.228, -5.401e-5
0.227, -5.551e-5
0.226, -5.703e-5
0.225, -5.855e-5
0.224, -6.009e-5
0.223, -6.165e-5
0.222, -6.322e-5
0.221, -6.480e-5
0.220, -6.639e-5
0.219, -6.798e-5
0.218, -6.958e-5
0.217, -7.118e-5
0.216, -7.279e-5
0.215, -7.442e-5
0.214, -7.604e-5
0.213, -7.766e-5
0.212, -7.930e-5
0.211, -8.093e-5
0.210, -8.258e-5
0.209, -8.423e-5
0.208, -8.588e-5
0.207, -8.756e-5
0.206, -8.927e-5
0.205, -9.101e-5
0.204, -9.274e-5
0.203, -9.444e-5
0.202, -9.609e-5
0.201, -9.771e-5
0.200, -9.932e-5
0.199, -1.010e-4
0.198, -1.026e-4
0.197, -1.043e-4
0.196, -1.059e-4
0.195, -1.076e-4
0.194, -1.092e-4
0.193, -1.108e-4
0.192, -1.124e-4
0.191, -1.140e-4
0.190, -1.156e-4
0.189, -1.171e-4
0.188, -1.187e-4
0.187, -1.202e-4
0.186, -1.218e-4
0.185, -1.233e-4
0.184, -1.248e-4
0.183, -1.263e-4
0.182, -1.278e-4
0.181, -1.292e-4
0.180, -1.307e-4
0.179, -1.321e-4
0.178, -1.335e-4
0.177, -1.349e-4
0.176, -1.363e-4
0.175, -1.376e-4
0.174, -1.389e-4
0.173, -1.402e-4
0.172, -1.415e-4
0.171, -1.427e-4
0.170, -1.439e-4
0.169, -1.451e-4
0.168, -1.463e-4
0.167, -1.475e-4
0.166, -1.486e-4
0.165, -1.497e-4
0.164, -1.507e-4
0.163, -1.518e-4
0.162, -1.528e-4
0.161, -1.537e-4
0.160, -1.547e-4
0.159, -1.556e-4
0.158, -1.565e-4
0.157, -1.573e-4
0.156, -1.581e-4
0.155, -1.589e-4
0.154, -1.597e-4
0.153, -1.604e-4
0.152, -1.611e-4
0.151, -1.618e-4
0.150, -1.624e-4
0.149, -1.630e-4
0.148, -1.636e-4
0.147, -1.641e-4
0.146, -1.647e-4
0.145, -1.651e-4
0.144, -1.655e-4
0.143, -1.659e-4
0.142, -1.663e-4
0.141, -1.666e-4
0.140, -1.669e-4
0.139, -1.671e-4
0.138, -1.673e-4
0.137, -1.674e-4
0.136, -1.675e-4
0.135, -1.676e-4
0.134, -1.676e-4
0.133, -1.676e-4
0.132, -1.676e-4
0.131, -1.676e-4
0.130, -1.675e-4
0.129, -1.674e-4
0.128, -1.673e-4
0.127, -1.671e-4
0.126, -1.669e-4
0.125, -1.667e-4
0.124, -1.664e-4
0.123, -1.661e-4
0.122, -1.659e-4
0.121, -1.656e-4
0.120, -1.652e-4
0.119, -1.649e-4
0.118, -1.645e-4
0.117, -1.641e-4
0.116, -1.636e-4
0.115, -1.632e-4
0.114, -1.627e-4
0.113, -1.623e-4
0.112, -1.618e-4
0.111, -1.613e-4
0.110, -1.607e-4
0.109, -1.602e-4
0.108, -1.596e-4
0.107, -1.591e-4
0.106, -1.585e-4
0.105, -1.579e-4
0.104, -1.573e-4
0.103, -1.567e-4
0.102, -1.561e-4
0.101, -1.555e-4
0.100, -1.549e-4
0.099, -1.543e-4
0.098, -1.537e-4
0.097, -1.531e-4
0.096, -1.524e-4
0.095, -1.518e-4
0.094, -1.511e-4
0.093, -1.505e-4
0.092, -1.498e-4
0.091, -1.492e-4
0.090, -1.485e-4
0.089, -1.478e-4
0.088, -1.472e-4
0.087, -1.465e-4
0.086, -1.459e-4
0.085, -1.452e-4
0.084, -1.445e-4
0.083, -1.439e-4
0.082, -1.432e-4
0.081, -1.426e-4
0.080, -1.419e-4
0.079, -1.413e-4
0.078, -1.406e-4
0.077, -1.400e-4
0.076, -1.394e-4
0.075, -1.387e-4
0.074, -1.381e-4
0.073, -1.374e-4
0.072, -1.368e-4
0.071, -1.362e-4
0.070, -1.356e-4
0.069, -1.350e-4
0.068, -1.343e-4
0.067, -1.338e-4
0.066, -1.332e-4
0.065, -1.326e-4
0.064, -1.320e-4
0.063, -1.314e-4
0.062, -1.308e-4
0.061, -1.302e-4
0.060, -1.296e-4
0.059, -1.291e-4
0.058, -1.285e-4
0.057, -1.280e-4
0.056, -1.274e-4
0.055, -1.268e-4
0.054, -1.263e-4
0.053, -1.257e-4
0.052, -1.252e-4
0.051, -1.247e-4
0.050, -1.241e-4
0.049, -1.236e-4
0.048, -1.231e-4
0.047, -1.226e-4
0.046, -1.221e-4
0.045, -1.216e-4
0.044, -1.211e-4
0.043, -1.206e-4
0.042, -1.201e-4
0.041, -1.196e-4
0.040, -1.191e-4
0.039, -1.187e-4
0.038, -1.182e-4
0.037, -1.177e-4
0.036, -1.173e-4
0.035, -1.168e-4
0.034, -1.164e-4
0.033, -1.159e-4
0.032, -1.155e-4
0.031, -1.150e-4
0.030, -1.146e-4
0.029, -1.142e-4
0.028, -1.138e-4
0.027, -1.134e-4
0.026, -1.129e-4
0.025, -1.125e-4
0.024, -1.121e-4
0.023, -1.117e-4
0.022, -1.113e-4
0.021, -1.109e-4
0.020, -1.105e-4
0.019, -1.101e-4
0.018, -1.097e-4
0.017, -1.094e-4
0.016, -1.090e-4
0.015, -1.086e-4
0.014, -1.083e-4
0.013, -1.079e-4
0.012, -1.075e-4
0.011, -1.071e-4
0.010, -1.068e-4
0.009, -1.064e-4
0.008, -1.061e-4
0.007, -1.057e-4
0.006, -1.054e-4
0.005, -1.050e-4
0.004, -1.047e-4
0.003, -1.044e-4
0.002, -1.041e-4
0.001, -1.037e-4
0.000, -1.034e-4
-0.001, -1.031e-4
-0.002, -1.028e-4
-0.003, -1.024e-4
-0.004, -1.021e-4
-0.005, -1.018e-4
-0.006, -1.015e-4
-0.007, -1.012e-4
-0.008, -1.009e-4
-0.009, -1.006e-4
-0.010, -1.003e-4
-0.011, -1.000e-4
-0.012, -9.972e-5
-0.013, -9.943e-5
-0.014, -9.916e-5
-0.015, -9.889e-5
-0.016, -9.862e-5
-0.017, -9.834e-5
-0.018, -9.806e-5
-0.019, -9.777e-5
-0.020, -9.749e-5
-0.021, -9.722e-5
-0.022, -9.695e-5
-0.023, -9.670e-5
-0.024, -9.646e-5
-0.025, -9.622e-5
-0.026, -9.596e-5
-0.027, -9.571e-5
-0.028, -9.545e-5
-0.029, -9.520e-5
-0.030, -9.496e-5
-0.031, -9.471e-5
-0.032, -9.447e-5
-0.033, -9.424e-5
-0.034, -9.401e-5
-0.035, -9.377e-5
-0.036, -9.352e-5
-0.037, -9.327e-5
-0.038, -9.303e-5
-0.039, -9.280e-5
-0.040, -9.257e-5
-0.041, -9.234e-5
-0.042, -9.212e-5
-0.043, -9.190e-5
-0.044, -9.169e-5
-0.045, -9.147e-5
-0.046, -9.124e-5
-0.047, -9.101e-5
-0.048, -9.079e-5
-0.049, -9.058e-5
-0.050, -9.037e-5
-0.051, -9.016e-5
-0.052, -8.995e-5
-0.053, -8.974e-5
-0.054, -8.954e-5
-0.055, -8.935e-5
-0.056, -8.917e-5
-0.057, -8.897e-5
-0.058, -8.876e-5
-0.059, -8.854e-5
-0.060, -8.832e-5
-0.061, -8.812e-5
-0.062, -8.794e-5
-0.063, -8.775e-5
-0.064, -8.756e-5
-0.065, -8.736e-5
-0.066, -8.717e-5
-0.067, -8.698e-5
-0.068, -8.681e-5
-0.069, -8.663e-5
-0.070, -8.645e-5
-0.071, -8.626e-5
-0.072, -8.607e-5
-0.073, -8.588e-5
-0.074, -8.570e-5
-0.075, -8.552e-5
-0.076, -8.535e-5
-0.077, -8.517e-5
-0.078, -8.499e-5
-0.079, -8.482e-5
-0.080, -8.466e-5
-0.081, -8.452e-5
-0.082, -8.437e-5
-0.083, -8.421e-5
-0.084, -8.404e-5
-0.085, -8.385e-5
-0.086, -8.366e-5
-0.087, -8.348e-5
-0.088, -8.331e-5
-0.089, -8.315e-5
-0.090, -8.299e-5
-0.091, -8.285e-5
-0.092, -8.270e-5
-0.093, -8.254e-5
-0.094, -8.238e-5
-0.095, -8.222e-5
-0.096, -8.206e-5
-0.097, -8.192e-5
-0.098, -8.178e-5
-0.099, -8.163e-5
-0.100, -8.146e-5
-0.101, -8.128e-5
-0.102, -8.111e-5
-0.103, -8.095e-5
-0.104, -8.081e-5
-0.105, -8.069e-5
-0.106, -8.056e-5
-0.107, -8.042e-5
-0.108, -8.027e-5
-0.109, -8.012e-5
-0.110, -7.997e-5
-0.111, -7.984e-5
-0.112, -7.971e-5
-0.113, -7.959e-5
-0.114, -7.947e-5
-0.115, -7.934e-5
-0.116, -7.920e-5
-0.117, -7.906e-5
-0.118, -7.891e-5
-0.119, -7.876e-5
-0.120, -7.862e-5
-0.121, -7.849e-5
-0.122, -7.837e-5
-0.123, -7.825e-5
-0.124, -7.812e-5
-0.125, -7.800e-5
-0.126, -7.787e-5
-0.127, -7.773e-5
-0.128, -7.760e-5
-0.129, -7.747e-5
-0.130, -7.735e-5
-0.131, -7.724e-5
-0.132, -7.713e-5
-0.133, -7.702e-5
-0.134, -7.691e-5
-0.135, -7.679e-5
-0.136, -7.668e-5
-0.137, -7.655e-5
-0.138, -7.642e-5
-0.139, -7.629e-5
-0.140, -7.617e-5
-0.141, -7.605e-5
-0.142, -7.594e-5
-0.143, -7.583e-5
-0.144, -7.572e-5
-0.145, -7.562e-5
-0.146, -7.550e-5
-0.147, -7.539e-5
-0.148, -7.527e-5
-0.149, -7.516e-5
-0.150, -7.505e-5
-0.151, -7.495e-5
-0.152, -7.486e-5
-0.153, -7.477e-5
-0.154, -7.467e-5
-0.155, -7.458e-5
-0.156, -7.448e-5
-0.157, -7.438e-5
-0.158, -7.427e-5
-0.159, -7.417e-5
-0.160, -7.406e-5
-0.161, -7.394e-5
-0.162, -7.383e-5
-0.163, -7.372e-5
-0.164, -7.361e-5
-0.165, -7.351e-5
-0.166, -7.342e-5
-0.167, -7.333e-5
-0.168, -7.324e-5
-0.169, -7.314e-5
-0.170, -7.303e-5
-0.171, -7.294e-5
-0.172, -7.285e-5
-0.173, -7.276e-5
-0.174, -7.267e-5
-0.175, -7.258e-5
-0.176, -7.249e-5
-0.177, -7.241e-5
-0.178, -7.233e-5
-0.179, -7.225e-5
-0.180, -7.218e-5
-0.181, -7.210e-5
-0.182, -7.202e-5
-0.183, -7.193e-5
-0.184, -7.184e-5
-0.185, -7.174e-5
-0.186, -7.165e-5
-0.187, -7.157e-5
-0.188, -7.149e-5
-0.189, -7.141e-5
-0.190, -7.133e-5
-0.191, -7.125e-5
-0.192, -7.117e-5
-0.193, -7.110e-5
-0.194, -7.104e-5
-0.195, -7.097e-5
-0.196, -7.091e-5
-0.197, -7.084e-5
-0.198, -7.077e-5
-0.199, -7.069e-5
